5.00000 1677.000
5.04000 1626.000
5.08000 1584.000
5.12000 1580.000
5.16000 1551.000
5.20000 1480.000
5.24000 1467.000
5.28000 1425.000
5.32000 1411.000
5.36000 1384.000
5.40000 1401.000
5.44000 1387.000
5.48000 1407.000
5.52000 1394.000
5.56000 1373.000
5.60000 1291.000
5.64000 1255.000
5.68000 1252.000
5.72000 1294.000
5.76000 1310.000
5.80000 1329.000
5.84000 1206.000
5.88000 1247.000
5.92000 1249.000
5.96000 1225.000
6.00000 1218.000
6.04000 1227.000
6.08000 1194.000
6.12000 1163.000
6.16000 1160.000
6.20000 1184.000
6.24000 1171.000
6.28000 1123.000
6.32000 1093.000
6.36000 1110.000
6.40000 1152.000
6.44000 1126.000
6.48000 1114.000
6.52000 1093.000
6.56000 1045.000
6.60000 1111.000
6.64000 1088.000
6.68000 1102.000
6.72000 1093.000
6.76000 1038.000
6.80000 1053.000
6.84000 1071.000
6.88000 1106.000
6.92000 1029.000
6.96000 1090.000
7.00000 1040.000
7.04000 1053.000
7.08000 1038.000
7.12000 977.000
7.16000 1004.000
7.20000 943.000
7.24000 1008.000
7.28000 994.000
7.32000 1020.000
7.36000 946.000
7.40000 962.000
7.44000 962.000
7.48000 959.000
7.52000 970.000
7.56000 955.000
7.60000 915.000
7.64000 959.000
7.68000 955.000
7.72000 926.000
7.76000 919.000
7.80000 954.000
7.84000 980.000
7.88000 942.000
7.92000 914.000
7.96000 858.000
8.00000 877.000
8.04000 910.000
8.08000 885.000
8.12000 951.000
8.16000 905.000
8.20000 888.000
8.24000 933.000
8.28000 896.000
8.32000 875.000
8.36000 884.000
8.40000 953.000
8.44000 926.000
8.48000 911.000
8.52000 921.000
8.56000 908.000
8.60000 848.000
8.64000 872.000
8.68000 943.000
8.72000 886.000
8.76000 857.000
8.80000 914.000
8.84000 889.000
8.88000 841.000
8.92000 883.000
8.96000 818.000
9.00000 804.000
9.04000 845.000
9.08000 822.000
9.12000 850.000
9.16000 851.000
9.20000 760.000
9.24000 732.000
9.28000 782.000
9.32000 818.000
9.36000 784.000
9.40000 792.000
9.44000 769.000
9.48000 755.000
9.52000 774.000
9.56000 755.000
9.60000 741.000
9.64000 763.000
9.68000 752.000
9.72000 727.000
9.76000 758.000
9.80000 777.000
9.84000 762.000
9.88000 777.000
9.92000 755.000
9.96000 778.000
10.00000 746.000
10.04000 734.000
10.08000 779.000
10.12000 754.000
10.16000 712.000
10.20000 757.000
10.24000 720.000
10.28000 734.000
10.32000 737.000
10.36000 747.000
10.40000 697.000
10.44000 684.000
10.48000 680.000
10.52000 697.000
10.56000 729.000
10.60000 741.000
10.64000 688.000
10.68000 741.000
10.72000 742.000
10.76000 705.000
10.80000 720.000
10.84000 680.000
10.88000 729.000
10.92000 736.000
10.96000 697.000
11.00000 727.000
11.04000 678.000
11.08000 640.000
11.12000 733.000
11.16000 721.000
11.20000 675.000
11.24000 712.000
11.28000 690.000
11.32000 688.000
11.36000 689.000
11.40000 709.000
11.44000 676.000
11.48000 666.000
11.52000 681.000
11.56000 675.000
11.60000 689.000
11.64000 696.000
11.68000 716.000
11.72000 672.000
11.76000 688.000
11.80000 701.000
11.84000 651.000
11.88000 705.000
11.92000 720.000
11.96000 741.000
12.00000 697.000
12.04000 719.000
12.08000 725.000
12.12000 694.000
12.16000 727.000
12.20000 825.000
12.24000 716.000
12.28000 733.000
12.32000 775.000
12.36000 771.000
12.40000 774.000
12.44000 771.000
12.48000 669.000
12.52000 768.000
12.56000 700.000
12.60000 668.000
12.64000 710.000
12.68000 640.000
12.72000 694.000
12.76000 651.000
12.80000 679.000
12.84000 683.000
12.88000 670.000
12.92000 639.000
12.96000 668.000
13.00000 687.000
13.04000 685.000
13.08000 671.000
13.12000 651.000
13.16000 661.000
13.20000 633.000
13.24000 662.000
13.28000 701.000
13.32000 683.000
13.36000 690.000
13.40000 678.000
13.44000 649.000
13.48000 683.000
13.52000 665.000
13.56000 650.000
13.60000 688.000
13.64000 655.000
13.68000 636.000
13.72000 639.000
13.76000 671.000
13.80000 659.000
13.84000 684.000
13.88000 664.000
13.92000 680.000
13.96000 657.000
14.00000 669.000
14.04000 672.000
14.08000 669.000
14.12000 697.000
14.16000 637.000
14.20000 663.000
14.24000 731.000
14.28000 679.000
14.32000 694.000
14.36000 683.000
14.40000 717.000
14.44000 670.000
14.48000 688.000
14.52000 701.000
14.56000 732.000
14.60000 745.000
14.64000 753.000
14.68000 743.000
14.72000 729.000
14.76000 759.000
14.80000 753.000
14.84000 726.000
14.88000 753.000
14.92000 785.000
14.96000 807.000
15.00000 797.000
15.04000 812.000
15.08000 861.000
15.12000 835.000
15.16000 819.000
15.20000 813.000
15.24000 792.000
15.28000 815.000
15.32000 826.000
15.36000 802.000
15.40000 818.000
15.44000 802.000
15.48000 732.000
15.52000 712.000
15.56000 750.000
15.60000 737.000
15.64000 725.000
15.68000 751.000
15.72000 749.000
15.76000 702.000
15.80000 705.000
15.84000 735.000
15.88000 746.000
15.92000 739.000
15.96000 756.000
16.00000 716.000
16.04000 748.000
16.08000 715.000
16.12000 712.000
16.16000 705.000
16.20000 682.000
16.24000 758.000
16.28000 733.000
16.32000 752.000
16.36000 704.000
16.40000 733.000
16.44000 751.000
16.48000 762.000
16.52000 781.000
16.56000 831.000
16.60000 750.000
16.64000 753.000
16.68000 744.000
16.72000 728.000
16.76000 760.000
16.80000 720.000
16.84000 770.000
16.88000 763.000
16.92000 738.000
16.96000 803.000
17.00000 769.000
17.04000 803.000
17.08000 806.000
17.12000 833.000
17.16000 828.000
17.20000 804.000
17.24000 846.000
17.28000 814.000
17.32000 887.000
17.36000 875.000
17.40000 871.000
17.44000 851.000
17.48000 922.000
17.52000 913.000
17.56000 889.000
17.60000 869.000
17.64000 926.000
17.68000 905.000
17.72000 941.000
17.76000 881.000
17.80000 885.000
17.84000 843.000
17.88000 875.000
17.92000 834.000
17.96000 787.000
18.00000 821.000
18.04000 859.000
18.08000 892.000
18.12000 892.000
18.16000 857.000
18.20000 909.000
18.24000 838.000
18.28000 842.000
18.32000 886.000
18.36000 864.000
18.40000 868.000
18.44000 886.000
18.48000 868.000
18.52000 878.000
18.56000 868.000
18.60000 858.000
18.64000 844.000
18.68000 864.000
18.72000 915.000
18.76000 913.000
18.80000 893.000
18.84000 918.000
18.88000 900.000
18.92000 907.000
18.96000 904.000
19.00000 957.000
19.04000 881.000
19.08000 977.000
19.12000 906.000
19.16000 904.000
19.20000 901.000
19.24000 882.000
19.28000 970.000
19.32000 970.000
19.36000 931.000
19.40000 892.000
19.44000 917.000
19.48000 977.000
19.52000 904.000
19.56000 1001.000
19.60000 1038.000
19.64000 995.000
19.68000 943.000
19.72000 976.000
19.76000 940.000
19.80000 993.000
19.84000 950.000
19.88000 1005.000
19.92000 992.000
19.96000 953.000
20.00000 1035.000
20.04000 1025.000
20.08000 984.000
20.12000 996.000
20.16000 992.000
20.20000 1054.000
20.24000 1017.000
20.28000 1009.000
20.32000 1020.000
20.36000 1041.000
20.40000 1036.000
20.44000 1091.000
20.48000 1053.000
20.52000 1041.000
20.56000 1105.000
20.60000 1079.000
20.64000 1067.000
20.68000 1142.000
20.72000 1102.000
20.76000 1072.000
20.80000 1066.000
20.84000 1088.000
20.88000 1140.000
20.92000 1101.000
20.96000 1128.000
21.00000 1113.000
21.04000 1159.000
21.08000 1044.000
21.12000 1129.000
21.16000 1155.000
21.20000 1195.000
21.24000 1233.000
21.28000 1236.000
21.32000 1185.000
21.36000 1281.000
21.40000 1319.000
21.44000 1289.000
21.48000 1379.000
21.52000 1312.000
21.56000 1398.000
21.60000 1447.000
21.64000 1426.000
21.68000 1360.000
21.72000 1385.000
21.76000 1349.000
21.80000 1293.000
21.84000 1245.000
21.88000 1214.000
21.92000 1248.000
21.96000 1238.000
22.00000 1196.000
22.04000 1238.000
22.08000 1258.000
22.12000 1127.000
22.16000 1140.000
22.20000 1211.000
22.24000 1206.000
22.28000 1237.000
22.32000 1183.000
22.36000 1198.000
22.40000 1240.000
22.44000 1241.000
22.48000 1266.000
22.52000 1253.000
22.56000 1154.000
22.60000 1225.000
22.64000 1190.000
22.68000 1273.000
22.72000 1259.000
22.76000 1263.000
22.80000 1187.000
22.84000 1190.000
22.88000 1257.000
22.92000 1201.000
22.96000 1180.000
23.00000 1200.000
23.04000 1216.000
23.08000 1245.000
23.12000 1228.000
23.16000 1312.000
23.20000 1207.000
23.24000 1249.000
23.28000 1259.000
23.32000 1255.000
23.36000 1303.000
23.40000 1258.000
23.44000 1246.000
23.48000 1264.000
23.52000 1305.000
23.56000 1234.000
23.60000 1207.000
23.64000 1261.000
23.68000 1290.000
23.72000 1222.000
23.76000 1280.000
23.80000 1247.000
23.84000 1270.000
23.88000 1209.000
23.92000 1272.000
23.96000 1223.000
24.00000 1233.000
24.04000 1235.000
24.08000 1258.000
24.12000 1234.000
24.16000 1246.000
24.20000 1206.000
24.24000 1235.000
24.28000 1207.000
24.32000 1246.000
24.36000 1175.000
24.40000 1202.000
24.44000 1195.000
24.48000 1253.000
24.52000 1220.000
24.56000 1163.000
24.60000 1217.000
24.64000 1297.000
24.68000 1236.000
24.72000 1205.000
24.76000 1279.000
24.80000 1252.000
24.84000 1243.000
24.88000 1283.000
24.92000 1181.000
24.96000 1258.000
25.00000 1243.000
25.04000 1270.000
25.08000 1271.000
25.12000 1208.000
25.16000 1263.000
25.20000 1309.000
25.24000 1194.000
25.28000 1249.000
25.32000 1237.000
25.36000 1231.000
25.40000 1290.000
25.44000 1230.000
25.48000 1180.000
25.52000 1254.000
25.56000 1198.000
25.60000 1203.000
25.64000 1227.000
25.68000 1299.000
25.72000 1191.000
25.76000 1294.000
25.80000 1206.000
25.84000 1284.000
25.88000 1306.000
25.92000 1323.000
25.96000 1303.000
26.00000 1320.000
26.04000 1321.000
26.08000 1362.000
26.12000 1410.000
26.16000 1396.000
26.20000 1511.000
26.24000 1509.000
26.28000 1593.000
26.32000 1651.000
26.36000 1660.000
26.40000 1727.000
26.44000 1803.000
26.48000 1855.000
26.52000 1743.000
26.56000 1762.000
26.60000 1691.000
26.64000 1640.000
26.68000 1543.000
26.72000 1509.000
26.76000 1392.000
26.80000 1459.000
26.84000 1356.000
26.88000 1310.000
26.92000 1274.000
26.96000 1238.000
27.00000 1264.000
27.04000 1302.000
27.08000 1179.000
27.12000 1198.000
27.16000 1160.000
27.20000 1226.000
27.24000 1173.000
27.28000 1194.000
27.32000 1241.000
27.36000 1223.000
27.40000 1221.000
27.44000 1146.000
27.48000 1153.000
27.52000 1172.000
27.56000 1150.000
27.60000 1202.000
27.64000 1125.000
27.68000 1206.000
27.72000 1170.000
27.76000 1182.000
27.80000 1175.000
27.84000 1154.000
27.88000 1170.000
27.92000 1171.000
27.96000 1142.000
28.00000 1148.000
28.04000 1193.000
28.08000 1135.000
28.12000 1188.000
28.16000 1146.000
28.20000 1159.000
28.24000 1174.000
28.28000 1123.000
28.32000 1111.000
28.36000 1209.000
28.40000 1112.000
28.44000 1111.000
28.48000 1091.000
28.52000 1110.000
28.56000 1113.000
28.60000 1097.000
28.64000 1119.000
28.68000 1090.000
28.72000 1061.000
28.76000 1116.000
28.80000 1071.000
28.84000 1108.000
28.88000 1132.000
28.92000 1140.000
28.96000 1113.000
29.00000 1098.000
29.04000 1148.000
29.08000 1116.000
29.12000 1134.000
29.16000 1169.000
29.20000 1094.000
29.24000 1100.000
29.28000 1099.000
29.32000 1112.000
29.36000 1145.000
29.40000 1141.000
29.44000 1195.000
29.48000 1100.000
29.52000 1106.000
29.56000 1105.000
29.60000 1080.000
29.64000 1105.000
29.68000 1127.000
29.72000 1098.000
29.76000 1161.000
29.80000 1100.000
29.84000 1112.000
29.88000 1066.000
29.92000 1005.000
29.96000 1101.000
30.00000 1111.000
30.04000 1083.000
30.08000 1122.000
30.12000 1144.000
30.16000 1137.000
30.20000 1162.000
30.24000 1109.000
30.28000 1184.000
30.32000 1157.000
30.36000 1257.000
30.40000 1283.000
30.44000 1291.000
30.48000 1324.000
30.52000 1338.000
30.56000 1328.000
30.60000 1407.000
30.64000 1430.000
30.68000 1420.000
30.72000 1435.000
30.76000 1415.000
30.80000 1382.000
30.84000 1340.000
30.88000 1271.000
30.92000 1289.000
30.96000 1197.000
31.00000 1218.000
31.04000 1169.000
31.08000 1163.000
31.12000 1151.000
31.16000 1098.000
31.20000 1042.000
31.24000 1065.000
31.28000 990.000
31.32000 1033.000
31.36000 973.000
31.40000 1041.000
31.44000 1011.000
31.48000 989.000
31.52000 975.000
31.56000 1004.000
31.60000 929.000
31.64000 976.000
31.68000 995.000
31.72000 979.000
31.76000 961.000
31.80000 961.000
31.84000 939.000
31.88000 983.000
31.92000 1015.000
31.96000 929.000
32.00000 855.000
32.04000 932.000
32.08000 962.000
32.12000 930.000
32.16000 970.000
32.20000 876.000
32.24000 952.000
32.28000 928.000
32.32000 881.000
32.36000 871.000
32.40000 922.000
32.44000 904.000
32.48000 887.000
32.52000 857.000
32.56000 903.000
32.60000 891.000
32.64000 807.000
32.68000 855.000
32.72000 804.000
32.76000 884.000
32.80000 852.000
32.84000 937.000
32.88000 857.000
32.92000 838.000
32.96000 853.000
33.00000 880.000
33.04000 859.000
33.08000 803.000
33.12000 868.000
33.16000 836.000
33.20000 807.000
33.24000 803.000
33.28000 808.000
33.32000 844.000
33.36000 908.000
33.40000 863.000
33.44000 820.000
33.48000 860.000
33.52000 797.000
33.56000 846.000
33.60000 804.000
33.64000 827.000
33.68000 769.000
33.72000 800.000
33.76000 774.000
33.80000 848.000
33.84000 756.000
33.88000 820.000
33.92000 791.000
33.96000 744.000
34.00000 726.000
34.04000 813.000
34.08000 756.000
34.12000 834.000
34.16000 790.000
34.20000 796.000
34.24000 803.000
34.28000 760.000
34.32000 840.000
34.36000 798.000
34.40000 832.000
34.44000 837.000
34.48000 737.000
34.52000 780.000
34.56000 729.000
34.60000 760.000
34.64000 811.000
34.68000 705.000
34.72000 709.000
34.76000 697.000
34.80000 773.000
34.84000 685.000
34.88000 694.000
34.92000 704.000
34.96000 695.000
35.00000 722.000
35.04000 711.000
35.08000 704.000
35.12000 711.000
35.16000 704.000
35.20000 662.000
35.24000 691.000
35.28000 701.000
35.32000 683.000
35.36000 706.000
35.40000 724.000
35.44000 651.000
35.48000 667.000
35.52000 663.000
35.56000 672.000
35.60000 680.000
35.64000 657.000
35.68000 652.000
35.72000 666.000
35.76000 674.000
35.80000 640.000
35.84000 642.000
35.88000 684.000
35.92000 688.000
35.96000 594.000
36.00000 630.000
36.04000 638.000
36.08000 624.000
36.12000 649.000
36.16000 614.000
36.20000 628.000
36.24000 602.000
36.28000 637.000
36.32000 645.000
36.36000 617.000
36.40000 637.000
36.44000 602.000
36.48000 624.000
36.52000 588.000
36.56000 615.000
36.60000 619.000
36.64000 658.000
36.68000 607.000
36.72000 573.000
36.76000 609.000
36.80000 594.000
36.84000 618.000
36.88000 609.000
36.92000 608.000
36.96000 578.000
37.00000 594.000
37.04000 603.000
37.08000 592.000
37.12000 625.000
37.16000 565.000
37.20000 639.000
37.24000 604.000
37.28000 601.000
37.32000 568.000
37.36000 574.000
37.40000 563.000
37.44000 597.000
37.48000 600.000
37.52000 555.000
37.56000 630.000
37.60000 642.000
37.64000 594.000
37.68000 581.000
37.72000 593.000
37.76000 600.000
37.80000 587.000
37.84000 651.000
37.88000 611.000
37.92000 641.000
37.96000 597.000
38.00000 597.000
38.04000 571.000
38.08000 656.000
38.12000 622.000
38.16000 539.000
38.20000 571.000
38.24000 550.000
38.28000 563.000
38.32000 539.000
38.36000 573.000
38.40000 545.000
38.44000 563.000
38.48000 528.000
38.52000 563.000
38.56000 551.000
38.60000 565.000
38.64000 539.000
38.68000 532.000
38.72000 559.000
38.76000 488.000
38.80000 550.000
38.84000 492.000
38.88000 530.000
38.92000 596.000
38.96000 540.000
39.00000 545.000
39.04000 534.000
39.08000 543.000
39.12000 557.000
39.16000 512.000
39.20000 529.000
39.24000 542.000
39.28000 518.000
39.32000 538.000
39.36000 526.000
39.40000 514.000
39.44000 545.000
39.48000 498.000
39.52000 485.000
39.56000 499.000
39.60000 552.000
39.64000 513.000
39.68000 546.000
39.72000 520.000
39.76000 486.000
39.80000 533.000
39.84000 509.000
39.88000 546.000
39.92000 565.000
39.96000 474.000
40.00000 545.000
40.04000 509.000
40.08000 528.000
40.12000 553.000
40.16000 491.000
40.20000 531.000
40.24000 508.000
40.28000 516.000
40.32000 525.000
40.36000 552.000
40.40000 536.000
40.44000 497.000
40.48000 517.000
40.52000 497.000
40.56000 540.000
40.60000 544.000
40.64000 492.000
40.68000 491.000
40.72000 499.000
40.76000 501.000
40.80000 556.000
40.84000 479.000
40.88000 501.000
40.92000 554.000
40.96000 542.000
41.00000 529.000
41.04000 534.000
41.08000 504.000
41.12000 525.000
41.16000 522.000
41.20000 532.000
41.24000 510.000
41.28000 549.000
41.32000 495.000
41.36000 484.000
41.40000 531.000
41.44000 524.000
41.48000 483.000
41.52000 505.000
41.56000 553.000
41.60000 528.000
41.64000 527.000
41.68000 518.000
41.72000 535.000
41.76000 516.000
41.80000 501.000
41.84000 524.000
41.88000 534.000
41.92000 525.000
41.96000 576.000
42.00000 535.000
42.04000 530.000
42.08000 519.000
42.12000 540.000
42.16000 531.000
42.20000 485.000
42.24000 517.000
42.28000 520.000
42.32000 535.000
42.36000 528.000
42.40000 538.000
42.44000 491.000
42.48000 509.000
42.52000 562.000
42.56000 515.000
42.60000 544.000
42.64000 508.000
42.68000 510.000
42.72000 509.000
42.76000 519.000
42.80000 506.000
42.84000 532.000
42.88000 511.000
42.92000 476.000
42.96000 565.000
43.00000 539.000
43.04000 573.000
43.08000 521.000
43.12000 514.000
43.16000 529.000
43.20000 495.000
43.24000 496.000
43.28000 566.000
43.32000 515.000
43.36000 569.000
43.40000 530.000
43.44000 569.000
43.48000 563.000
43.52000 568.000
43.56000 557.000
43.60000 592.000
43.64000 596.000
43.68000 595.000
43.72000 649.000
43.76000 555.000
43.80000 637.000
43.84000 667.000
43.88000 675.000
43.92000 703.000
43.96000 699.000
44.00000 673.000
44.04000 692.000
44.08000 707.000
44.12000 670.000
44.16000 678.000
44.20000 619.000
44.24000 628.000
44.28000 595.000
44.32000 588.000
44.36000 541.000
44.40000 623.000
44.44000 536.000
44.48000 534.000
44.52000 581.000
44.56000 539.000
44.60000 565.000
44.64000 563.000
44.68000 597.000
44.72000 546.000
44.76000 575.000
44.80000 535.000
44.84000 550.000
44.88000 499.000
44.92000 486.000
44.96000 536.000
45.00000 553.000
45.04000 519.000
45.08000 560.000
45.12000 494.000
45.16000 536.000
45.20000 469.000
45.24000 484.000
45.28000 521.000
45.32000 538.000
45.36000 481.000
45.40000 492.000
45.44000 505.000
45.48000 461.000
45.52000 462.000
45.56000 506.000
45.60000 516.000
45.64000 517.000
45.68000 507.000
45.72000 489.000
45.76000 520.000
45.80000 465.000
45.84000 446.000
45.88000 531.000
45.92000 407.000
45.96000 514.000
46.00000 497.000
46.04000 496.000
46.08000 470.000
46.12000 499.000
46.16000 460.000
46.20000 468.000
46.24000 491.000
46.28000 509.000
46.32000 459.000
46.36000 479.000
46.40000 471.000
46.44000 491.000
46.48000 467.000
46.52000 482.000
46.56000 488.000
46.60000 474.000
46.64000 456.000
46.68000 479.000
46.72000 498.000
46.76000 487.000
46.80000 451.000
46.84000 489.000
46.88000 540.000
46.92000 450.000
46.96000 484.000
47.00000 456.000
47.04000 490.000
47.08000 486.000
47.12000 448.000
47.16000 477.000
47.20000 458.000
47.24000 481.000
47.28000 468.000
47.32000 427.000
47.36000 448.000
47.40000 465.000
47.44000 481.000
47.48000 471.000
47.52000 459.000
47.56000 474.000
47.60000 467.000
47.64000 464.000
47.68000 494.000
47.72000 493.000
47.76000 453.000
47.80000 433.000
47.84000 456.000
47.88000 467.000
47.92000 451.000
47.96000 472.000
48.00000 427.000
48.04000 465.000
48.08000 433.000
48.12000 447.000
48.16000 439.000
48.20000 477.000
48.24000 418.000
48.28000 448.000
48.32000 449.000
48.36000 421.000
48.40000 466.000
48.44000 477.000
48.48000 434.000
48.52000 465.000
48.56000 449.000
48.60000 428.000
48.64000 435.000
48.68000 445.000
48.72000 428.000
48.76000 457.000
48.80000 475.000
48.84000 439.000
48.88000 442.000
48.92000 437.000
48.96000 471.000
49.00000 443.000
49.04000 435.000
49.08000 473.000
49.12000 444.000
49.16000 428.000
49.20000 431.000
49.24000 439.000
49.28000 476.000
49.32000 416.000
49.36000 452.000
49.40000 438.000
49.44000 440.000
49.48000 480.000
49.52000 463.000
49.56000 456.000
49.60000 485.000
49.64000 449.000
49.68000 442.000
49.72000 471.000
49.76000 486.000
49.80000 454.000
49.84000 417.000
49.88000 418.000
49.92000 429.000
49.96000 419.000
50.00000 431.000
50.04000 455.000
50.08000 434.000
50.12000 461.000
50.16000 483.000
50.20000 426.000
50.24000 437.000
50.28000 463.000
50.32000 391.000
50.36000 432.000
50.40000 427.000
50.44000 453.000
50.48000 402.000
50.52000 441.000
50.56000 392.000
50.60000 464.000
50.64000 446.000
50.68000 447.000
50.72000 434.000
50.76000 396.000
50.80000 393.000
50.84000 429.000
50.88000 452.000
50.92000 440.000
50.96000 440.000
51.00000 422.000
51.04000 425.000
51.08000 426.000
51.12000 419.000
51.16000 403.000
51.20000 460.000
51.24000 418.000
51.28000 424.000
51.32000 431.000
51.36000 437.000
51.40000 455.000
51.44000 449.000
51.48000 410.000
51.52000 433.000
51.56000 415.000
51.60000 448.000
51.64000 437.000
51.68000 441.000
51.72000 450.000
51.76000 439.000
51.80000 445.000
51.84000 435.000
51.88000 451.000
51.92000 475.000
51.96000 480.000
52.00000 459.000
52.04000 430.000
52.08000 472.000
52.12000 497.000
52.16000 448.000
52.20000 457.000
52.24000 469.000
52.28000 484.000
52.32000 464.000
52.36000 476.000
52.40000 462.000
52.44000 473.000
52.48000 417.000
52.52000 454.000
52.56000 409.000
52.60000 466.000
52.64000 424.000
52.68000 437.000
52.72000 407.000
52.76000 400.000
52.80000 438.000
52.84000 410.000
52.88000 417.000
52.92000 404.000
52.96000 424.000
53.00000 443.000
53.04000 404.000
53.08000 439.000
53.12000 433.000
53.16000 464.000
53.20000 411.000
53.24000 454.000
53.28000 443.000
53.32000 462.000
53.36000 429.000
53.40000 408.000
53.44000 454.000
53.48000 466.000
53.52000 429.000
53.56000 460.000
53.60000 470.000
53.64000 407.000
53.68000 440.000
53.72000 411.000
53.76000 417.000
53.80000 429.000
53.84000 450.000
53.88000 403.000
53.92000 438.000
53.96000 442.000
54.00000 410.000
54.04000 418.000
54.08000 420.000
54.12000 446.000
54.16000 441.000
54.20000 423.000
54.24000 439.000
54.28000 440.000
54.32000 438.000
54.36000 473.000
54.40000 437.000
54.44000 451.000
54.48000 454.000
54.52000 487.000
54.56000 434.000
54.60000 424.000
54.64000 483.000
54.68000 474.000
54.72000 451.000
54.76000 491.000
54.80000 454.000
54.84000 414.000
54.88000 445.000
54.92000 430.000
54.96000 444.000
55.00000 439.000
55.04000 415.000
55.08000 428.000
55.12000 427.000
55.16000 412.000
55.20000 419.000
55.24000 415.000
55.28000 437.000
55.32000 447.000
55.36000 444.000
55.40000 431.000
55.44000 452.000
55.48000 390.000
55.52000 435.000
55.56000 418.000
55.60000 429.000
55.64000 436.000
55.68000 446.000
55.72000 385.000
55.76000 442.000
55.80000 399.000
55.84000 411.000
55.88000 429.000
55.92000 445.000
55.96000 392.000
56.00000 431.000
56.04000 469.000
56.08000 407.000
56.12000 412.000
56.16000 407.000
56.20000 432.000
56.24000 415.000
56.28000 429.000
56.32000 442.000
56.36000 415.000
56.40000 437.000
56.44000 441.000
56.48000 426.000
56.52000 448.000
56.56000 437.000
56.60000 403.000
56.64000 453.000
56.68000 419.000
56.72000 391.000
56.76000 464.000
56.80000 401.000
56.84000 435.000
56.88000 404.000
56.92000 422.000
56.96000 421.000
57.00000 420.000
57.04000 475.000
57.08000 425.000
57.12000 436.000
57.16000 429.000
57.20000 444.000
57.24000 413.000
57.28000 434.000
57.32000 462.000
57.36000 435.000
57.40000 448.000
57.44000 420.000
57.48000 433.000
57.52000 466.000
57.56000 431.000
57.60000 408.000
57.64000 449.000
57.68000 403.000
57.72000 431.000
57.76000 418.000
57.80000 418.000
57.84000 425.000
57.88000 387.000
57.92000 412.000
57.96000 405.000
58.00000 375.000
58.04000 460.000
58.08000 410.000
58.12000 433.000
58.16000 415.000
58.20000 402.000
58.24000 404.000
58.28000 406.000
58.32000 413.000
58.36000 415.000
58.40000 408.000
58.44000 407.000
58.48000 389.000
58.52000 444.000
58.56000 399.000
58.60000 421.000
58.64000 428.000
58.68000 391.000
58.72000 398.000
58.76000 411.000
58.80000 429.000
58.84000 409.000
58.88000 457.000
58.92000 439.000
58.96000 442.000
59.00000 430.000
59.04000 404.000
59.08000 435.000
59.12000 420.000
59.16000 398.000
59.20000 448.000
59.24000 459.000
59.28000 414.000
59.32000 434.000
59.36000 447.000
59.40000 437.000
59.44000 419.000
59.48000 453.000
59.52000 413.000
59.56000 390.000
59.60000 423.000
59.64000 457.000
59.68000 394.000
59.72000 437.000
59.76000 417.000
59.80000 441.000
59.84000 416.000
59.88000 449.000
59.92000 409.000
59.96000 470.000
60.00000 451.000
60.04000 428.000
60.08000 430.000
60.12000 436.000
60.16000 454.000
60.20000 407.000
60.24000 437.000
60.28000 435.000
60.32000 440.000
60.36000 447.000
60.40000 411.000
60.44000 380.000
60.48000 422.000
60.52000 427.000
60.56000 420.000
60.60000 436.000
60.64000 395.000
60.68000 406.000
60.72000 410.000
60.76000 418.000
60.80000 382.000
60.84000 394.000
60.88000 429.000
60.92000 430.000
60.96000 445.000
61.00000 421.000
61.04000 393.000
61.08000 414.000
61.12000 426.000
61.16000 382.000
61.20000 396.000
61.24000 394.000
61.28000 406.000
61.32000 388.000
61.36000 389.000
61.40000 438.000
61.44000 406.000
61.48000 409.000
61.52000 443.000
61.56000 400.000
61.60000 398.000
61.64000 418.000
61.68000 432.000
61.72000 443.000
61.76000 449.000
61.80000 430.000
61.84000 390.000
61.88000 399.000
61.92000 450.000
61.96000 439.000
62.00000 408.000
62.04000 392.000
62.08000 403.000
62.12000 422.000
62.16000 411.000
62.20000 380.000
62.24000 414.000
62.28000 400.000
62.32000 458.000
62.36000 444.000
62.40000 435.000
62.44000 411.000
62.48000 415.000
62.52000 418.000
62.56000 376.000
62.60000 414.000
62.64000 393.000
62.68000 418.000
62.72000 420.000
62.76000 413.000
62.80000 393.000
62.84000 402.000
62.88000 422.000
62.92000 394.000
62.96000 423.000
63.00000 386.000
63.04000 418.000
63.08000 364.000
63.12000 445.000
63.16000 429.000
63.20000 422.000
63.24000 413.000
63.28000 417.000
63.32000 419.000
63.36000 405.000
63.40000 399.000
63.44000 418.000
63.48000 417.000
63.52000 417.000
63.56000 415.000
63.60000 397.000
63.64000 376.000
63.68000 403.000
63.72000 405.000
63.76000 410.000
63.80000 411.000
63.84000 430.000
63.88000 409.000
63.92000 423.000
63.96000 431.000
64.00000 399.000
64.04000 420.000
64.08000 447.000
64.12000 398.000
64.16000 399.000
64.20000 442.000
64.24000 413.000
64.28000 396.000
64.32000 405.000
64.36000 416.000
64.40000 420.000
64.44000 409.000
64.48000 437.000
64.52000 407.000
64.56000 398.000
64.60000 370.000
64.64000 382.000
64.68000 413.000
64.72000 367.000
64.76000 417.000
64.80000 417.000
64.84000 405.000
64.88000 423.000
64.92000 362.000
64.96000 402.000
65.00000 367.000
65.04000 398.000
65.08000 365.000
65.12000 415.000
65.16000 368.000
65.20000 407.000
65.24000 392.000
65.28000 409.000
65.32000 405.000
65.36000 386.000
65.40000 401.000
65.44000 417.000
65.48000 421.000
65.52000 404.000
65.56000 402.000
65.60000 407.000
65.64000 416.000
65.68000 406.000
65.72000 372.000
65.76000 376.000
65.80000 450.000
65.84000 403.000
65.88000 386.000
65.92000 402.000
65.96000 400.000
66.00000 412.000
66.04000 409.000
66.08000 431.000
66.12000 401.000
66.16000 435.000
66.20000 364.000
66.24000 385.000
66.28000 387.000
66.32000 402.000
66.36000 369.000
66.40000 382.000
66.44000 405.000
66.48000 397.000
66.52000 340.000
66.56000 367.000
66.60000 377.000
66.64000 407.000
66.68000 408.000
66.72000 387.000
66.76000 405.000
66.80000 387.000
66.84000 394.000
66.88000 376.000
66.92000 372.000
66.96000 431.000
67.00000 402.000
67.04000 399.000
67.08000 380.000
67.12000 344.000
67.16000 372.000
67.20000 366.000
67.24000 373.000
67.28000 381.000
67.32000 344.000
67.36000 338.000
67.40000 345.000
67.44000 400.000
67.48000 365.000
67.52000 361.000
67.56000 402.000
67.60000 389.000
67.64000 394.000
67.68000 375.000
67.72000 350.000
67.76000 363.000
67.80000 345.000
67.84000 381.000
67.88000 344.000
67.92000 384.000
67.96000 386.000
68.00000 373.000
68.04000 364.000
68.08000 412.000
68.12000 378.000
68.16000 362.000
68.20000 368.000
68.24000 396.000
68.28000 381.000
68.32000 396.000
68.36000 374.000
68.40000 375.000
68.44000 395.000
68.48000 368.000
68.52000 384.000
68.56000 390.000
68.60000 360.000
68.64000 358.000
68.68000 383.000
68.72000 369.000
68.76000 359.000
68.80000 343.000
68.84000 403.000
68.88000 347.000
68.92000 390.000
68.96000 388.000
69.00000 353.000
69.04000 346.000
69.08000 346.000
69.12000 364.000
69.16000 351.000
69.20000 379.000
69.24000 352.000
69.28000 368.000
69.32000 345.000
69.36000 373.000
69.40000 344.000
69.44000 341.000
69.48000 349.000
69.52000 376.000
69.56000 375.000
69.60000 402.000
69.64000 333.000
69.68000 363.000
69.72000 339.000
69.76000 356.000
69.80000 345.000
69.84000 376.000
69.88000 396.000
69.92000 410.000
