5.00000 1454.000
5.04000 1443.000
5.08000 1430.000
5.12000 1412.000
5.16000 1384.000
5.20000 1389.000
5.24000 1365.000
5.28000 1411.000
5.32000 1376.000
5.36000 1297.000
5.40000 1267.000
5.44000 1385.000
5.48000 1339.000
5.52000 1300.000
5.56000 1275.000
5.60000 1317.000
5.64000 1304.000
5.68000 1294.000
5.72000 1214.000
5.76000 1264.000
5.80000 1232.000
5.84000 1194.000
5.88000 1206.000
5.92000 1231.000
5.96000 1267.000
6.00000 1128.000
6.04000 1153.000
6.08000 1205.000
6.12000 1188.000
6.16000 1189.000
6.20000 1132.000
6.24000 1134.000
6.28000 1139.000
6.32000 1139.000
6.36000 1161.000
6.40000 1118.000
6.44000 1075.000
6.48000 1061.000
6.52000 1051.000
6.56000 1126.000
6.60000 1093.000
6.64000 1133.000
6.68000 1078.000
6.72000 1084.000
6.76000 1077.000
6.80000 1086.000
6.84000 1077.000
6.88000 1050.000
6.92000 1022.000
6.96000 1051.000
7.00000 1110.000
7.04000 1071.000
7.08000 997.000
7.12000 1081.000
7.16000 1000.000
7.20000 1003.000
7.24000 1004.000
7.28000 998.000
7.32000 1018.000
7.36000 1019.000
7.40000 981.000
7.44000 967.000
7.48000 985.000
7.52000 982.000
7.56000 941.000
7.60000 956.000
7.64000 1015.000
7.68000 947.000
7.72000 914.000
7.76000 947.000
7.80000 911.000
7.84000 920.000
7.88000 978.000
7.92000 953.000
7.96000 957.000
8.00000 921.000
8.04000 900.000
8.08000 872.000
8.12000 933.000
8.16000 944.000
8.20000 945.000
8.24000 869.000
8.28000 924.000
8.32000 958.000
8.36000 880.000
8.40000 916.000
8.44000 902.000
8.48000 911.000
8.52000 915.000
8.56000 845.000
8.60000 858.000
8.64000 881.000
8.68000 968.000
8.72000 906.000
8.76000 881.000
8.80000 901.000
8.84000 908.000
8.88000 890.000
8.92000 864.000
8.96000 893.000
9.00000 814.000
9.04000 843.000
9.08000 826.000
9.12000 892.000
9.16000 813.000
9.20000 879.000
9.24000 859.000
9.28000 751.000
9.32000 794.000
9.36000 823.000
9.40000 815.000
9.44000 775.000
9.48000 782.000
9.52000 784.000
9.56000 808.000
9.60000 759.000
9.64000 768.000
9.68000 773.000
9.72000 777.000
9.76000 781.000
9.80000 702.000
9.84000 781.000
9.88000 713.000
9.92000 773.000
9.96000 760.000
10.00000 747.000
10.04000 772.000
10.08000 750.000
10.12000 734.000
10.16000 673.000
10.20000 718.000
10.24000 731.000
10.28000 697.000
10.32000 737.000
10.36000 755.000
10.40000 690.000
10.44000 742.000
10.48000 636.000
10.52000 762.000
10.56000 751.000
10.60000 743.000
10.64000 713.000
10.68000 687.000
10.72000 658.000
10.76000 732.000
10.80000 729.000
10.84000 748.000
10.88000 741.000
10.92000 709.000
10.96000 704.000
11.00000 732.000
11.04000 696.000
11.08000 691.000
11.12000 667.000
11.16000 646.000
11.20000 726.000
11.24000 711.000
11.28000 753.000
11.32000 644.000
11.36000 732.000
11.40000 647.000
11.44000 696.000
11.48000 718.000
11.52000 664.000
11.56000 654.000
11.60000 704.000
11.64000 682.000
11.68000 716.000
11.72000 662.000
11.76000 696.000
11.80000 662.000
11.84000 674.000
11.88000 691.000
11.92000 706.000
11.96000 724.000
12.00000 680.000
12.04000 685.000
12.08000 696.000
12.12000 724.000
12.16000 714.000
12.20000 730.000
12.24000 691.000
12.28000 728.000
12.32000 722.000
12.36000 786.000
12.40000 753.000
12.44000 738.000
12.48000 678.000
12.52000 809.000
12.56000 753.000
12.60000 756.000
12.64000 701.000
12.68000 717.000
12.72000 720.000
12.76000 696.000
12.80000 661.000
12.84000 707.000
12.88000 669.000
12.92000 669.000
12.96000 671.000
13.00000 675.000
13.04000 617.000
13.08000 670.000
13.12000 696.000
13.16000 641.000
13.20000 649.000
13.24000 683.000
13.28000 613.000
13.32000 692.000
13.36000 624.000
13.40000 677.000
13.44000 670.000
13.48000 672.000
13.52000 641.000
13.56000 685.000
13.60000 699.000
13.64000 693.000
13.68000 679.000
13.72000 626.000
13.76000 677.000
13.80000 702.000
13.84000 626.000
13.88000 659.000
13.92000 672.000
13.96000 728.000
14.00000 658.000
14.04000 631.000
14.08000 657.000
14.12000 675.000
14.16000 695.000
14.20000 648.000
14.24000 673.000
14.28000 698.000
14.32000 623.000
14.36000 696.000
14.40000 642.000
14.44000 740.000
14.48000 701.000
14.52000 690.000
14.56000 692.000
14.60000 689.000
14.64000 736.000
14.68000 714.000
14.72000 710.000
14.76000 699.000
14.80000 681.000
14.84000 775.000
14.88000 743.000
14.92000 778.000
14.96000 742.000
15.00000 799.000
15.04000 819.000
15.08000 843.000
15.12000 860.000
15.16000 873.000
15.20000 910.000
15.24000 916.000
15.28000 906.000
15.32000 813.000
15.36000 877.000
15.40000 874.000
15.44000 826.000
15.48000 841.000
15.52000 789.000
15.56000 831.000
15.60000 757.000
15.64000 746.000
15.68000 740.000
15.72000 703.000
15.76000 759.000
15.80000 733.000
15.84000 795.000
15.88000 741.000
15.92000 740.000
15.96000 712.000
16.00000 715.000
16.04000 706.000
16.08000 723.000
16.12000 698.000
16.16000 793.000
16.20000 746.000
16.24000 743.000
16.28000 693.000
16.32000 696.000
16.36000 711.000
16.40000 725.000
16.44000 757.000
16.48000 739.000
16.52000 731.000
16.56000 713.000
16.60000 720.000
16.64000 741.000
16.68000 755.000
16.72000 734.000
16.76000 778.000
16.80000 782.000
16.84000 767.000
16.88000 723.000
16.92000 788.000
16.96000 729.000
17.00000 737.000
17.04000 780.000
17.08000 751.000
17.12000 772.000
17.16000 826.000
17.20000 736.000
17.24000 829.000
17.28000 820.000
17.32000 887.000
17.36000 866.000
17.40000 808.000
17.44000 851.000
17.48000 842.000
17.52000 906.000
17.56000 931.000
17.60000 946.000
17.64000 964.000
17.68000 964.000
17.72000 909.000
17.76000 900.000
17.80000 901.000
17.84000 903.000
17.88000 906.000
17.92000 911.000
17.96000 873.000
18.00000 907.000
18.04000 811.000
18.08000 847.000
18.12000 847.000
18.16000 835.000
18.20000 855.000
18.24000 888.000
18.28000 854.000
18.32000 831.000
18.36000 893.000
18.40000 868.000
18.44000 875.000
18.48000 854.000
18.52000 882.000
18.56000 858.000
18.60000 851.000
18.64000 872.000
18.68000 897.000
18.72000 851.000
18.76000 903.000
18.80000 880.000
18.84000 938.000
18.88000 916.000
18.92000 915.000
18.96000 873.000
19.00000 860.000
19.04000 881.000
19.08000 877.000
19.12000 873.000
19.16000 900.000
19.20000 930.000
19.24000 968.000
19.28000 945.000
19.32000 924.000
19.36000 925.000
19.40000 943.000
19.44000 960.000
19.48000 957.000
19.52000 935.000
19.56000 904.000
19.60000 952.000
19.64000 952.000
19.68000 959.000
19.72000 996.000
19.76000 944.000
19.80000 984.000
19.84000 963.000
19.88000 998.000
19.92000 1035.000
19.96000 1014.000
20.00000 1065.000
20.04000 1019.000
20.08000 1037.000
20.12000 975.000
20.16000 991.000
20.20000 1020.000
20.24000 1006.000
20.28000 1057.000
20.32000 1026.000
20.36000 1027.000
20.40000 1071.000
20.44000 988.000
20.48000 1047.000
20.52000 1052.000
20.56000 1021.000
20.60000 1045.000
20.64000 1032.000
20.68000 1071.000
20.72000 1047.000
20.76000 1150.000
20.80000 1054.000
20.84000 1041.000
20.88000 1037.000
20.92000 1121.000
20.96000 1106.000
21.00000 1086.000
21.04000 1178.000
21.08000 1096.000
21.12000 1132.000
21.16000 1098.000
21.20000 1192.000
21.24000 1183.000
21.28000 1164.000
21.32000 1207.000
21.36000 1211.000
21.40000 1174.000
21.44000 1269.000
21.48000 1265.000
21.52000 1307.000
21.56000 1304.000
21.60000 1400.000
21.64000 1437.000
21.68000 1491.000
21.72000 1544.000
21.76000 1450.000
21.80000 1536.000
21.84000 1426.000
21.88000 1388.000
21.92000 1364.000
21.96000 1372.000
22.00000 1367.000
22.04000 1280.000
22.08000 1260.000
22.12000 1268.000
22.16000 1284.000
22.20000 1256.000
22.24000 1220.000
22.28000 1201.000
22.32000 1258.000
22.36000 1144.000
22.40000 1239.000
22.44000 1182.000
22.48000 1227.000
22.52000 1138.000
22.56000 1237.000
22.60000 1197.000
22.64000 1246.000
22.68000 1228.000
22.72000 1262.000
22.76000 1199.000
22.80000 1191.000
22.84000 1232.000
22.88000 1198.000
22.92000 1210.000
22.96000 1225.000
23.00000 1144.000
23.04000 1219.000
23.08000 1275.000
23.12000 1211.000
23.16000 1212.000
23.20000 1235.000
23.24000 1215.000
23.28000 1191.000
23.32000 1214.000
23.36000 1307.000
23.40000 1257.000
23.44000 1277.000
23.48000 1239.000
23.52000 1176.000
23.56000 1252.000
23.60000 1191.000
23.64000 1296.000
23.68000 1262.000
23.72000 1268.000
23.76000 1227.000
23.80000 1277.000
23.84000 1209.000
23.88000 1218.000
23.92000 1240.000
23.96000 1158.000
24.00000 1171.000
24.04000 1216.000
24.08000 1232.000
24.12000 1190.000
24.16000 1265.000
24.20000 1251.000
24.24000 1195.000
24.28000 1236.000
24.32000 1233.000
24.36000 1255.000
24.40000 1195.000
24.44000 1268.000
24.48000 1233.000
24.52000 1267.000
24.56000 1187.000
24.60000 1175.000
24.64000 1227.000
24.68000 1223.000
24.72000 1262.000
24.76000 1200.000
24.80000 1223.000
24.84000 1225.000
24.88000 1254.000
24.92000 1217.000
24.96000 1211.000
25.00000 1229.000
25.04000 1230.000
25.08000 1258.000
25.12000 1334.000
25.16000 1235.000
25.20000 1278.000
25.24000 1198.000
25.28000 1255.000
25.32000 1269.000
25.36000 1246.000
25.40000 1152.000
25.44000 1221.000
25.48000 1214.000
25.52000 1212.000
25.56000 1226.000
25.60000 1211.000
25.64000 1217.000
25.68000 1209.000
25.72000 1256.000
25.76000 1245.000
25.80000 1189.000
25.84000 1176.000
25.88000 1257.000
25.92000 1254.000
25.96000 1214.000
26.00000 1238.000
26.04000 1238.000
26.08000 1253.000
26.12000 1209.000
26.16000 1236.000
26.20000 1303.000
26.24000 1284.000
26.28000 1294.000
26.32000 1298.000
26.36000 1403.000
26.40000 1480.000
26.44000 1500.000
26.48000 1610.000
26.52000 1618.000
26.56000 1716.000
26.60000 1763.000
26.64000 1765.000
26.68000 1858.000
26.72000 1968.000
26.76000 1839.000
26.80000 1809.000
26.84000 1733.000
26.88000 1634.000
26.92000 1623.000
26.96000 1558.000
27.00000 1408.000
27.04000 1391.000
27.08000 1446.000
27.12000 1308.000
27.16000 1271.000
27.20000 1334.000
27.24000 1264.000
27.28000 1227.000
27.32000 1227.000
27.36000 1236.000
27.40000 1179.000
27.44000 1237.000
27.48000 1234.000
27.52000 1232.000
27.56000 1223.000
27.60000 1148.000
27.64000 1191.000
27.68000 1120.000
27.72000 1161.000
27.76000 1141.000
27.80000 1114.000
27.84000 1196.000
27.88000 1179.000
27.92000 1133.000
27.96000 1166.000
28.00000 1158.000
28.04000 1144.000
28.08000 1160.000
28.12000 1161.000
28.16000 1182.000
28.20000 1166.000
28.24000 1139.000
28.28000 1159.000
28.32000 1108.000
28.36000 1155.000
28.40000 1174.000
28.44000 1115.000
28.48000 1128.000
28.52000 1156.000
28.56000 1100.000
28.60000 1136.000
28.64000 1110.000
28.68000 1119.000
28.72000 1118.000
28.76000 1152.000
28.80000 1079.000
28.84000 1088.000
28.88000 1058.000
28.92000 1057.000
28.96000 1058.000
29.00000 1071.000
29.04000 1098.000
29.08000 1062.000
29.12000 1114.000
29.16000 1088.000
29.20000 1110.000
29.24000 1130.000
29.28000 1139.000
29.32000 1084.000
29.36000 1063.000
29.40000 1116.000
29.44000 1067.000
29.48000 1059.000
29.52000 1043.000
29.56000 1064.000
29.60000 1132.000
29.64000 1105.000
29.68000 1024.000
29.72000 1098.000
29.76000 1060.000
29.80000 1054.000
29.84000 1054.000
29.88000 1113.000
29.92000 1063.000
29.96000 1034.000
30.00000 1020.000
30.04000 1026.000
30.08000 1068.000
30.12000 1083.000
30.16000 1116.000
30.20000 1074.000
30.24000 1084.000
30.28000 1119.000
30.32000 1114.000
30.36000 1143.000
30.40000 1068.000
30.44000 1133.000
30.48000 1127.000
30.52000 1122.000
30.56000 1200.000
30.60000 1261.000
30.64000 1311.000
30.68000 1279.000
30.72000 1290.000
30.76000 1394.000
30.80000 1484.000
30.84000 1498.000
30.88000 1613.000
30.92000 1488.000
30.96000 1582.000
31.00000 1587.000
31.04000 1482.000
31.08000 1470.000
31.12000 1430.000
31.16000 1369.000
31.20000 1375.000
31.24000 1287.000
31.28000 1164.000
31.32000 1140.000
31.36000 1178.000
31.40000 1040.000
31.44000 1070.000
31.48000 1049.000
31.52000 986.000
31.56000 1016.000
31.60000 1006.000
31.64000 945.000
31.68000 923.000
31.72000 912.000
31.76000 980.000
31.80000 908.000
31.84000 918.000
31.88000 932.000
31.92000 904.000
31.96000 887.000
32.00000 910.000
32.04000 920.000
32.08000 954.000
32.12000 909.000
32.16000 965.000
32.20000 930.000
32.24000 807.000
32.28000 898.000
32.32000 931.000
32.36000 909.000
32.40000 873.000
32.44000 905.000
32.48000 907.000
32.52000 869.000
32.56000 903.000
32.60000 903.000
32.64000 906.000
32.68000 858.000
32.72000 903.000
32.76000 850.000
32.80000 896.000
32.84000 860.000
32.88000 811.000
32.92000 877.000
32.96000 840.000
33.00000 823.000
33.04000 779.000
33.08000 833.000
33.12000 844.000
33.16000 821.000
33.20000 811.000
33.24000 830.000
33.28000 872.000
33.32000 846.000
33.36000 782.000
33.40000 848.000
33.44000 815.000
33.48000 814.000
33.52000 769.000
33.56000 772.000
33.60000 813.000
33.64000 839.000
33.68000 830.000
33.72000 857.000
33.76000 812.000
33.80000 737.000
33.84000 792.000
33.88000 746.000
33.92000 777.000
33.96000 766.000
34.00000 824.000
34.04000 797.000
34.08000 778.000
34.12000 763.000
34.16000 779.000
34.20000 766.000
34.24000 809.000
34.28000 745.000
34.32000 762.000
34.36000 753.000
34.40000 749.000
34.44000 793.000
34.48000 785.000
34.52000 771.000
34.56000 777.000
34.60000 800.000
34.64000 774.000
34.68000 753.000
34.72000 818.000
34.76000 754.000
34.80000 771.000
34.84000 747.000
34.88000 753.000
34.92000 698.000
34.96000 721.000
35.00000 726.000
35.04000 699.000
35.08000 716.000
35.12000 687.000
35.16000 659.000
35.20000 668.000
35.24000 706.000
35.28000 605.000
35.32000 710.000
35.36000 647.000
35.40000 663.000
35.44000 677.000
35.48000 677.000
35.52000 699.000
35.56000 662.000
35.60000 653.000
35.64000 689.000
35.68000 667.000
35.72000 641.000
35.76000 654.000
35.80000 644.000
35.84000 624.000
35.88000 620.000
35.92000 632.000
35.96000 621.000
36.00000 673.000
36.04000 607.000
36.08000 641.000
36.12000 646.000
36.16000 613.000
36.20000 593.000
36.24000 659.000
36.28000 594.000
36.32000 624.000
36.36000 672.000
36.40000 607.000
36.44000 606.000
36.48000 628.000
36.52000 644.000
36.56000 605.000
36.60000 620.000
36.64000 558.000
36.68000 609.000
36.72000 591.000
36.76000 598.000
36.80000 560.000
36.84000 630.000
36.88000 633.000
36.92000 520.000
36.96000 618.000
37.00000 602.000
37.04000 562.000
37.08000 578.000
37.12000 586.000
37.16000 582.000
37.20000 580.000
37.24000 625.000
37.28000 555.000
37.32000 576.000
37.36000 593.000
37.40000 546.000
37.44000 563.000
37.48000 566.000
37.52000 533.000
37.56000 582.000
37.60000 576.000
37.64000 565.000
37.68000 583.000
37.72000 586.000
37.76000 592.000
37.80000 579.000
37.84000 565.000
37.88000 549.000
37.92000 584.000
37.96000 619.000
38.00000 617.000
38.04000 655.000
38.08000 639.000
38.12000 646.000
38.16000 650.000
38.20000 619.000
38.24000 629.000
38.28000 606.000
38.32000 618.000
38.36000 634.000
38.40000 606.000
38.44000 590.000
38.48000 563.000
38.52000 588.000
38.56000 519.000
38.60000 515.000
38.64000 561.000
38.68000 534.000
38.72000 521.000
38.76000 539.000
38.80000 542.000
38.84000 541.000
38.88000 545.000
38.92000 541.000
38.96000 506.000
39.00000 543.000
39.04000 530.000
39.08000 526.000
39.12000 514.000
39.16000 508.000
39.20000 515.000
39.24000 533.000
39.28000 568.000
39.32000 525.000
39.36000 567.000
39.40000 561.000
39.44000 515.000
39.48000 501.000
39.52000 471.000
39.56000 516.000
39.60000 523.000
39.64000 511.000
39.68000 550.000
39.72000 530.000
39.76000 485.000
39.80000 527.000
39.84000 510.000
39.88000 504.000
39.92000 506.000
39.96000 550.000
40.00000 480.000
40.04000 511.000
40.08000 525.000
40.12000 523.000
40.16000 558.000
40.20000 538.000
40.24000 506.000
40.28000 537.000
40.32000 525.000
40.36000 548.000
40.40000 535.000
40.44000 479.000
40.48000 512.000
40.52000 492.000
40.56000 498.000
40.60000 522.000
40.64000 510.000
40.68000 546.000
40.72000 540.000
40.76000 510.000
40.80000 520.000
40.84000 501.000
40.88000 486.000
40.92000 511.000
40.96000 518.000
41.00000 551.000
41.04000 527.000
41.08000 528.000
41.12000 529.000
41.16000 557.000
41.20000 511.000
41.24000 552.000
41.28000 541.000
41.32000 521.000
41.36000 528.000
41.40000 519.000
41.44000 502.000
41.48000 494.000
41.52000 566.000
41.56000 530.000
41.60000 486.000
41.64000 533.000
41.68000 520.000
41.72000 502.000
41.76000 505.000
41.80000 499.000
41.84000 481.000
41.88000 531.000
41.92000 473.000
41.96000 515.000
42.00000 513.000
42.04000 549.000
42.08000 520.000
42.12000 501.000
42.16000 541.000
42.20000 509.000
42.24000 551.000
42.28000 520.000
42.32000 531.000
42.36000 548.000
42.40000 511.000
42.44000 496.000
42.48000 549.000
42.52000 510.000
42.56000 500.000
42.60000 527.000
42.64000 525.000
42.68000 521.000
42.72000 516.000
42.76000 525.000
42.80000 539.000
42.84000 491.000
42.88000 545.000
42.92000 527.000
42.96000 564.000
43.00000 521.000
43.04000 516.000
43.08000 505.000
43.12000 463.000
43.16000 501.000
43.20000 484.000
43.24000 500.000
43.28000 556.000
43.32000 525.000
43.36000 542.000
43.40000 544.000
43.44000 553.000
43.48000 475.000
43.52000 548.000
43.56000 527.000
43.60000 499.000
43.64000 552.000
43.68000 527.000
43.72000 555.000
43.76000 565.000
43.80000 525.000
43.84000 554.000
43.88000 573.000
43.92000 627.000
43.96000 591.000
44.00000 582.000
44.04000 619.000
44.08000 618.000
44.12000 644.000
44.16000 644.000
44.20000 685.000
44.24000 693.000
44.28000 695.000
44.32000 714.000
44.36000 724.000
44.40000 734.000
44.44000 732.000
44.48000 723.000
44.52000 659.000
44.56000 677.000
44.60000 664.000
44.64000 643.000
44.68000 630.000
44.72000 603.000
44.76000 592.000
44.80000 561.000
44.84000 571.000
44.88000 532.000
44.92000 552.000
44.96000 536.000
45.00000 520.000
45.04000 510.000
45.08000 548.000
45.12000 476.000
45.16000 554.000
45.20000 538.000
45.24000 491.000
45.28000 492.000
45.32000 507.000
45.36000 516.000
45.40000 465.000
45.44000 490.000
45.48000 489.000
45.52000 485.000
45.56000 556.000
45.60000 504.000
45.64000 506.000
45.68000 516.000
45.72000 490.000
45.76000 499.000
45.80000 506.000
45.84000 497.000
45.88000 511.000
45.92000 461.000
45.96000 533.000
46.00000 489.000
46.04000 485.000
46.08000 484.000
46.12000 500.000
46.16000 437.000
46.20000 459.000
46.24000 494.000
46.28000 465.000
46.32000 440.000
46.36000 501.000
46.40000 516.000
46.44000 452.000
46.48000 457.000
46.52000 517.000
46.56000 511.000
46.60000 485.000
46.64000 524.000
46.68000 491.000
46.72000 430.000
46.76000 450.000
46.80000 467.000
46.84000 487.000
46.88000 488.000
46.92000 471.000
46.96000 478.000
47.00000 506.000
47.04000 476.000
47.08000 494.000
47.12000 477.000
47.16000 448.000
47.20000 450.000
47.24000 466.000
47.28000 475.000
47.32000 514.000
47.36000 464.000
47.40000 486.000
47.44000 493.000
47.48000 423.000
47.52000 450.000
47.56000 440.000
47.60000 436.000
47.64000 479.000
47.68000 505.000
47.72000 451.000
47.76000 479.000
47.80000 451.000
47.84000 505.000
47.88000 447.000
47.92000 433.000
47.96000 478.000
48.00000 456.000
48.04000 445.000
48.08000 494.000
48.12000 479.000
48.16000 469.000
48.20000 418.000
48.24000 474.000
48.28000 472.000
48.32000 444.000
48.36000 432.000
48.40000 440.000
48.44000 424.000
48.48000 453.000
48.52000 469.000
48.56000 462.000
48.60000 450.000
48.64000 440.000
48.68000 430.000
48.72000 442.000
48.76000 424.000
48.80000 444.000
48.84000 458.000
48.88000 455.000
48.92000 452.000
48.96000 475.000
49.00000 469.000
49.04000 439.000
49.08000 459.000
49.12000 459.000
49.16000 455.000
49.20000 464.000
49.24000 444.000
49.28000 463.000
49.32000 447.000
49.36000 443.000
49.40000 447.000
49.44000 439.000
49.48000 458.000
49.52000 425.000
49.56000 458.000
49.60000 406.000
49.64000 450.000
49.68000 423.000
49.72000 465.000
49.76000 466.000
49.80000 471.000
49.84000 488.000
49.88000 471.000
49.92000 431.000
49.96000 430.000
50.00000 412.000
50.04000 468.000
50.08000 447.000
50.12000 437.000
50.16000 407.000
50.20000 421.000
50.24000 440.000
50.28000 450.000
50.32000 427.000
50.36000 439.000
50.40000 400.000
50.44000 502.000
50.48000 444.000
50.52000 428.000
50.56000 427.000
50.60000 431.000
50.64000 405.000
50.68000 432.000
50.72000 412.000
50.76000 430.000
50.80000 428.000
50.84000 442.000
50.88000 440.000
50.92000 412.000
50.96000 428.000
51.00000 411.000
51.04000 449.000
51.08000 437.000
51.12000 415.000
51.16000 453.000
51.20000 440.000
51.24000 443.000
51.28000 448.000
51.32000 437.000
51.36000 428.000
51.40000 419.000
51.44000 457.000
51.48000 419.000
51.52000 449.000
51.56000 427.000
51.60000 420.000
51.64000 435.000
51.68000 437.000
51.72000 432.000
51.76000 405.000
51.80000 418.000
51.84000 447.000
51.88000 429.000
51.92000 451.000
51.96000 444.000
52.00000 474.000
52.04000 465.000
52.08000 468.000
52.12000 462.000
52.16000 467.000
52.20000 425.000
52.24000 464.000
52.28000 444.000
52.32000 448.000
52.36000 498.000
52.40000 513.000
52.44000 480.000
52.48000 458.000
52.52000 469.000
52.56000 467.000
52.60000 495.000
52.64000 480.000
52.68000 449.000
52.72000 448.000
52.76000 448.000
52.80000 463.000
52.84000 481.000
52.88000 455.000
52.92000 466.000
52.96000 471.000
53.00000 439.000
53.04000 449.000
53.08000 454.000
53.12000 438.000
53.16000 428.000
53.20000 417.000
53.24000 412.000
53.28000 439.000
53.32000 468.000
53.36000 420.000
53.40000 408.000
53.44000 481.000
53.48000 431.000
53.52000 436.000
53.56000 377.000
53.60000 411.000
53.64000 391.000
53.68000 429.000
53.72000 465.000
53.76000 421.000
53.80000 415.000
53.84000 404.000
53.88000 427.000
53.92000 410.000
53.96000 411.000
54.00000 424.000
54.04000 412.000
54.08000 426.000
54.12000 417.000
54.16000 440.000
54.20000 418.000
54.24000 429.000
54.28000 435.000
54.32000 427.000
54.36000 468.000
54.40000 433.000
54.44000 457.000
54.48000 437.000
54.52000 433.000
54.56000 436.000
54.60000 445.000
54.64000 450.000
54.68000 452.000
54.72000 468.000
54.76000 431.000
54.80000 464.000
54.84000 417.000
54.88000 459.000
54.92000 469.000
54.96000 454.000
55.00000 449.000
55.04000 448.000
55.08000 487.000
55.12000 499.000
55.16000 489.000
55.20000 448.000
55.24000 442.000
55.28000 457.000
55.32000 483.000
55.36000 471.000
55.40000 454.000
55.44000 444.000
55.48000 413.000
55.52000 473.000
55.56000 431.000
55.60000 398.000
55.64000 430.000
55.68000 443.000
55.72000 447.000
55.76000 473.000
55.80000 412.000
55.84000 432.000
55.88000 408.000
55.92000 393.000
55.96000 412.000
56.00000 445.000
56.04000 434.000
56.08000 436.000
56.12000 449.000
56.16000 446.000
56.20000 451.000
56.24000 424.000
56.28000 439.000
56.32000 413.000
56.36000 464.000
56.40000 426.000
56.44000 417.000
56.48000 460.000
56.52000 425.000
56.56000 463.000
56.60000 454.000
56.64000 429.000
56.68000 443.000
56.72000 420.000
56.76000 451.000
56.80000 390.000
56.84000 414.000
56.88000 403.000
56.92000 413.000
56.96000 456.000
57.00000 422.000
57.04000 409.000
57.08000 446.000
57.12000 414.000
57.16000 417.000
57.20000 419.000
57.24000 431.000
57.28000 394.000
57.32000 406.000
57.36000 408.000
57.40000 476.000
57.44000 437.000
57.48000 392.000
57.52000 433.000
57.56000 431.000
57.60000 456.000
57.64000 419.000
57.68000 436.000
57.72000 415.000
57.76000 419.000
57.80000 393.000
57.84000 452.000
57.88000 409.000
57.92000 409.000
57.96000 421.000
58.00000 451.000
58.04000 391.000
58.08000 434.000
58.12000 421.000
58.16000 436.000
58.20000 444.000
58.24000 422.000
58.28000 412.000
58.32000 463.000
58.36000 421.000
58.40000 434.000
58.44000 436.000
58.48000 445.000
58.52000 390.000
58.56000 422.000
58.60000 449.000
58.64000 433.000
58.68000 431.000
58.72000 413.000
58.76000 419.000
58.80000 377.000
58.84000 424.000
58.88000 405.000
58.92000 411.000
58.96000 433.000
59.00000 383.000
59.04000 373.000
59.08000 375.000
59.12000 448.000
59.16000 401.000
59.20000 421.000
59.24000 389.000
59.28000 459.000
59.32000 412.000
59.36000 429.000
59.40000 426.000
59.44000 402.000
59.48000 416.000
59.52000 401.000
59.56000 437.000
59.60000 432.000
59.64000 454.000
59.68000 425.000
59.72000 431.000
59.76000 457.000
59.80000 403.000
59.84000 406.000
59.88000 416.000
59.92000 427.000
59.96000 439.000
60.00000 435.000
60.04000 436.000
60.08000 425.000
60.12000 430.000
60.16000 429.000
60.20000 414.000
60.24000 454.000
60.28000 444.000
60.32000 462.000
60.36000 422.000
60.40000 445.000
60.44000 419.000
60.48000 398.000
60.52000 411.000
60.56000 417.000
60.60000 428.000
60.64000 433.000
60.68000 426.000
60.72000 416.000
60.76000 418.000
60.80000 405.000
60.84000 426.000
60.88000 409.000
60.92000 427.000
60.96000 402.000
61.00000 424.000
61.04000 392.000
61.08000 410.000
61.12000 423.000
61.16000 375.000
61.20000 421.000
61.24000 425.000
61.28000 435.000
61.32000 427.000
61.36000 400.000
61.40000 434.000
61.44000 431.000
61.48000 392.000
61.52000 407.000
61.56000 418.000
61.60000 441.000
61.64000 416.000
61.68000 424.000
61.72000 377.000
61.76000 397.000
61.80000 404.000
61.84000 388.000
61.88000 378.000
61.92000 435.000
61.96000 415.000
62.00000 408.000
62.04000 405.000
62.08000 397.000
62.12000 411.000
62.16000 393.000
62.20000 425.000
62.24000 440.000
62.28000 401.000
62.32000 404.000
62.36000 418.000
62.40000 389.000
62.44000 430.000
62.48000 410.000
62.52000 425.000
62.56000 405.000
62.60000 409.000
62.64000 404.000
62.68000 383.000
62.72000 411.000
62.76000 432.000
62.80000 406.000
62.84000 438.000
62.88000 431.000
62.92000 414.000
62.96000 403.000
63.00000 450.000
63.04000 398.000
63.08000 397.000
63.12000 422.000
63.16000 431.000
63.20000 371.000
63.24000 411.000
63.28000 413.000
63.32000 403.000
63.36000 411.000
63.40000 408.000
63.44000 413.000
63.48000 432.000
63.52000 426.000
63.56000 427.000
63.60000 393.000
63.64000 408.000
63.68000 416.000
63.72000 421.000
63.76000 396.000
63.80000 404.000
63.84000 427.000
63.88000 383.000
63.92000 414.000
63.96000 394.000
64.00000 435.000
64.04000 409.000
64.08000 413.000
64.12000 408.000
64.16000 413.000
64.20000 398.000
64.24000 386.000
64.28000 385.000
64.32000 416.000
64.36000 381.000
64.40000 412.000
64.44000 419.000
64.48000 408.000
64.52000 407.000
64.56000 405.000
64.60000 421.000
64.64000 395.000
64.68000 406.000
64.72000 397.000
64.76000 401.000
64.80000 412.000
64.84000 407.000
64.88000 418.000
64.92000 389.000
64.96000 398.000
65.00000 411.000
65.04000 390.000
65.08000 398.000
65.12000 409.000
65.16000 422.000
65.20000 402.000
65.24000 422.000
65.28000 431.000
65.32000 402.000
65.36000 394.000
65.40000 404.000
65.44000 403.000
65.48000 385.000
65.52000 402.000
65.56000 343.000
65.60000 407.000
65.64000 405.000
65.68000 414.000
65.72000 348.000
65.76000 398.000
65.80000 380.000
65.84000 393.000
65.88000 393.000
65.92000 387.000
65.96000 392.000
66.00000 400.000
66.04000 361.000
66.08000 407.000
66.12000 355.000
66.16000 382.000
66.20000 386.000
66.24000 436.000
66.28000 394.000
66.32000 389.000
66.36000 383.000
66.40000 384.000
66.44000 378.000
66.48000 388.000
66.52000 368.000
66.56000 371.000
66.60000 379.000
66.64000 382.000
66.68000 372.000
66.72000 412.000
66.76000 368.000
66.80000 418.000
66.84000 383.000
66.88000 405.000
66.92000 385.000
66.96000 387.000
67.00000 405.000
67.04000 384.000
67.08000 378.000
67.12000 358.000
67.16000 384.000
67.20000 411.000
67.24000 363.000
67.28000 355.000
67.32000 356.000
67.36000 396.000
67.40000 362.000
67.44000 376.000
67.48000 406.000
67.52000 361.000
67.56000 351.000
67.60000 365.000
67.64000 392.000
67.68000 371.000
67.72000 336.000
67.76000 357.000
67.80000 372.000
67.84000 353.000
67.88000 357.000
67.92000 373.000
67.96000 388.000
68.00000 358.000
68.04000 390.000
68.08000 340.000
68.12000 334.000
68.16000 376.000
68.20000 380.000
68.24000 410.000
68.28000 379.000
68.32000 367.000
68.36000 351.000
68.40000 365.000
68.44000 355.000
68.48000 409.000
68.52000 364.000
68.56000 379.000
68.60000 374.000
68.64000 377.000
68.68000 384.000
68.72000 357.000
68.76000 341.000
68.80000 357.000
68.84000 362.000
68.88000 346.000
68.92000 355.000
68.96000 352.000
69.00000 368.000
69.04000 376.000
69.08000 347.000
69.12000 360.000
69.16000 373.000
69.20000 382.000
69.24000 363.000
69.28000 356.000
69.32000 372.000
69.36000 346.000
69.40000 356.000
69.44000 374.000
69.48000 347.000
69.52000 370.000
69.56000 338.000
69.60000 409.000
69.64000 364.000
69.68000 366.000
69.72000 366.000
69.76000 371.000
69.80000 378.000
69.84000 373.000
69.88000 356.000
69.92000 366.000
