5.00000 1434.000
5.04000 1396.000
5.08000 1357.000
5.12000 1449.000
5.16000 1412.000
5.20000 1394.000
5.24000 1369.000
5.28000 1347.000
5.32000 1380.000
5.36000 1309.000
5.40000 1390.000
5.44000 1377.000
5.48000 1216.000
5.52000 1312.000
5.56000 1261.000
5.60000 1306.000
5.64000 1281.000
5.68000 1264.000
5.72000 1280.000
5.76000 1229.000
5.80000 1239.000
5.84000 1255.000
5.88000 1223.000
5.92000 1201.000
5.96000 1181.000
6.00000 1236.000
6.04000 1209.000
6.08000 1123.000
6.12000 1192.000
6.16000 1162.000
6.20000 1080.000
6.24000 1167.000
6.28000 1097.000
6.32000 1167.000
6.36000 1154.000
6.40000 1172.000
6.44000 1091.000
6.48000 1136.000
6.52000 1143.000
6.56000 1106.000
6.60000 1082.000
6.64000 1020.000
6.68000 1075.000
6.72000 1064.000
6.76000 1076.000
6.80000 1094.000
6.84000 996.000
6.88000 1041.000
6.92000 1041.000
6.96000 1025.000
7.00000 1071.000
7.04000 1008.000
7.08000 1008.000
7.12000 983.000
7.16000 1058.000
7.20000 1003.000
7.24000 1009.000
7.28000 995.000
7.32000 1037.000
7.36000 1020.000
7.40000 942.000
7.44000 997.000
7.48000 983.000
7.52000 962.000
7.56000 957.000
7.60000 984.000
7.64000 924.000
7.68000 983.000
7.72000 974.000
7.76000 941.000
7.80000 996.000
7.84000 958.000
7.88000 998.000
7.92000 935.000
7.96000 909.000
8.00000 906.000
8.04000 893.000
8.08000 895.000
8.12000 923.000
8.16000 966.000
8.20000 940.000
8.24000 909.000
8.28000 893.000
8.32000 917.000
8.36000 881.000
8.40000 924.000
8.44000 906.000
8.48000 899.000
8.52000 918.000
8.56000 915.000
8.60000 922.000
8.64000 941.000
8.68000 908.000
8.72000 940.000
8.76000 900.000
8.80000 974.000
8.84000 889.000
8.88000 930.000
8.92000 926.000
8.96000 943.000
9.00000 897.000
9.04000 967.000
9.08000 955.000
9.12000 949.000
9.16000 894.000
9.20000 838.000
9.24000 815.000
9.28000 806.000
9.32000 791.000
9.36000 840.000
9.40000 828.000
9.44000 827.000
9.48000 747.000
9.52000 838.000
9.56000 742.000
9.60000 819.000
9.64000 803.000
9.68000 780.000
9.72000 772.000
9.76000 774.000
9.80000 760.000
9.84000 790.000
9.88000 676.000
9.92000 762.000
9.96000 784.000
10.00000 726.000
10.04000 716.000
10.08000 830.000
10.12000 724.000
10.16000 784.000
10.20000 738.000
10.24000 699.000
10.28000 756.000
10.32000 700.000
10.36000 689.000
10.40000 740.000
10.44000 751.000
10.48000 754.000
10.52000 715.000
10.56000 659.000
10.60000 748.000
10.64000 742.000
10.68000 718.000
10.72000 704.000
10.76000 740.000
10.80000 716.000
10.84000 683.000
10.88000 703.000
10.92000 710.000
10.96000 718.000
11.00000 668.000
11.04000 672.000
11.08000 665.000
11.12000 721.000
11.16000 666.000
11.20000 682.000
11.24000 699.000
11.28000 649.000
11.32000 631.000
11.36000 705.000
11.40000 688.000
11.44000 656.000
11.48000 667.000
11.52000 670.000
11.56000 683.000
11.60000 697.000
11.64000 708.000
11.68000 648.000
11.72000 674.000
11.76000 719.000
11.80000 687.000
11.84000 672.000
11.88000 740.000
11.92000 721.000
11.96000 672.000
12.00000 695.000
12.04000 688.000
12.08000 683.000
12.12000 675.000
12.16000 736.000
12.20000 702.000
12.24000 699.000
12.28000 757.000
12.32000 728.000
12.36000 738.000
12.40000 757.000
12.44000 720.000
12.48000 750.000
12.52000 806.000
12.56000 749.000
12.60000 807.000
12.64000 684.000
12.68000 751.000
12.72000 746.000
12.76000 684.000
12.80000 728.000
12.84000 700.000
12.88000 687.000
12.92000 674.000
12.96000 692.000
13.00000 665.000
13.04000 680.000
13.08000 662.000
13.12000 682.000
13.16000 696.000
13.20000 669.000
13.24000 638.000
13.28000 650.000
13.32000 659.000
13.36000 637.000
13.40000 613.000
13.44000 662.000
13.48000 636.000
13.52000 637.000
13.56000 662.000
13.60000 647.000
13.64000 664.000
13.68000 625.000
13.72000 703.000
13.76000 606.000
13.80000 688.000
13.84000 698.000
13.88000 651.000
13.92000 641.000
13.96000 632.000
14.00000 702.000
14.04000 654.000
14.08000 659.000
14.12000 643.000
14.16000 671.000
14.20000 628.000
14.24000 663.000
14.28000 662.000
14.32000 651.000
14.36000 662.000
14.40000 670.000
14.44000 725.000
14.48000 650.000
14.52000 716.000
14.56000 698.000
14.60000 713.000
14.64000 657.000
14.68000 668.000
14.72000 685.000
14.76000 662.000
14.80000 764.000
14.84000 692.000
14.88000 686.000
14.92000 710.000
14.96000 696.000
15.00000 742.000
15.04000 754.000
15.08000 750.000
15.12000 820.000
15.16000 802.000
15.20000 827.000
15.24000 848.000
15.28000 814.000
15.32000 880.000
15.36000 952.000
15.40000 889.000
15.44000 895.000
15.48000 907.000
15.52000 867.000
15.56000 850.000
15.60000 853.000
15.64000 790.000
15.68000 816.000
15.72000 788.000
15.76000 742.000
15.80000 770.000
15.84000 691.000
15.88000 702.000
15.92000 775.000
15.96000 767.000
16.00000 745.000
16.04000 677.000
16.08000 692.000
16.12000 776.000
16.16000 721.000
16.20000 730.000
16.24000 775.000
16.28000 722.000
16.32000 783.000
16.36000 776.000
16.40000 776.000
16.44000 729.000
16.48000 788.000
16.52000 667.000
16.56000 715.000
16.60000 771.000
16.64000 722.000
16.68000 738.000
16.72000 801.000
16.76000 717.000
16.80000 773.000
16.84000 745.000
16.88000 748.000
16.92000 759.000
16.96000 762.000
17.00000 746.000
17.04000 759.000
17.08000 802.000
17.12000 797.000
17.16000 759.000
17.20000 805.000
17.24000 781.000
17.28000 773.000
17.32000 792.000
17.36000 802.000
17.40000 829.000
17.44000 864.000
17.48000 878.000
17.52000 879.000
17.56000 885.000
17.60000 869.000
17.64000 941.000
17.68000 944.000
17.72000 1017.000
17.76000 1026.000
17.80000 1012.000
17.84000 988.000
17.88000 1049.000
17.92000 998.000
17.96000 1029.000
18.00000 944.000
18.04000 910.000
18.08000 939.000
18.12000 940.000
18.16000 945.000
18.20000 951.000
18.24000 930.000
18.28000 948.000
18.32000 944.000
18.36000 895.000
18.40000 839.000
18.44000 859.000
18.48000 855.000
18.52000 854.000
18.56000 860.000
18.60000 929.000
18.64000 848.000
18.68000 875.000
18.72000 914.000
18.76000 903.000
18.80000 900.000
18.84000 887.000
18.88000 950.000
18.92000 912.000
18.96000 884.000
19.00000 928.000
19.04000 879.000
19.08000 873.000
19.12000 919.000
19.16000 905.000
19.20000 937.000
19.24000 881.000
19.28000 902.000
19.32000 912.000
19.36000 935.000
19.40000 929.000
19.44000 953.000
19.48000 934.000
19.52000 982.000
19.56000 933.000
19.60000 971.000
19.64000 989.000
19.68000 977.000
19.72000 926.000
19.76000 992.000
19.80000 978.000
19.84000 1039.000
19.88000 1043.000
19.92000 997.000
19.96000 948.000
20.00000 992.000
20.04000 1012.000
20.08000 987.000
20.12000 1023.000
20.16000 1050.000
20.20000 979.000
20.24000 1037.000
20.28000 1048.000
20.32000 1012.000
20.36000 1015.000
20.40000 1004.000
20.44000 1008.000
20.48000 1075.000
20.52000 1083.000
20.56000 1011.000
20.60000 998.000
20.64000 1054.000
20.68000 1037.000
20.72000 1105.000
20.76000 1089.000
20.80000 1041.000
20.84000 1054.000
20.88000 1047.000
20.92000 1044.000
20.96000 1124.000
21.00000 1068.000
21.04000 1092.000
21.08000 1176.000
21.12000 1098.000
21.16000 1125.000
21.20000 1144.000
21.24000 1128.000
21.28000 1170.000
21.32000 1112.000
21.36000 1228.000
21.40000 1150.000
21.44000 1171.000
21.48000 1254.000
21.52000 1215.000
21.56000 1233.000
21.60000 1190.000
21.64000 1283.000
21.68000 1312.000
21.72000 1362.000
21.76000 1365.000
21.80000 1466.000
21.84000 1450.000
21.88000 1564.000
21.92000 1530.000
21.96000 1593.000
22.00000 1482.000
22.04000 1507.000
22.08000 1429.000
22.12000 1381.000
22.16000 1316.000
22.20000 1413.000
22.24000 1355.000
22.28000 1349.000
22.32000 1273.000
22.36000 1343.000
22.40000 1228.000
22.44000 1287.000
22.48000 1237.000
22.52000 1260.000
22.56000 1230.000
22.60000 1215.000
22.64000 1229.000
22.68000 1226.000
22.72000 1213.000
22.76000 1272.000
22.80000 1208.000
22.84000 1232.000
22.88000 1239.000
22.92000 1157.000
22.96000 1245.000
23.00000 1202.000
23.04000 1232.000
23.08000 1213.000
23.12000 1177.000
23.16000 1234.000
23.20000 1262.000
23.24000 1219.000
23.28000 1220.000
23.32000 1285.000
23.36000 1234.000
23.40000 1226.000
23.44000 1219.000
23.48000 1227.000
23.52000 1155.000
23.56000 1280.000
23.60000 1254.000
23.64000 1277.000
23.68000 1234.000
23.72000 1228.000
23.76000 1263.000
23.80000 1285.000
23.84000 1236.000
23.88000 1280.000
23.92000 1267.000
23.96000 1217.000
24.00000 1216.000
24.04000 1182.000
24.08000 1197.000
24.12000 1244.000
24.16000 1171.000
24.20000 1202.000
24.24000 1206.000
24.28000 1234.000
24.32000 1203.000
24.36000 1170.000
24.40000 1257.000
24.44000 1195.000
24.48000 1191.000
24.52000 1283.000
24.56000 1189.000
24.60000 1272.000
24.64000 1220.000
24.68000 1213.000
24.72000 1188.000
24.76000 1254.000
24.80000 1112.000
24.84000 1256.000
24.88000 1244.000
24.92000 1195.000
24.96000 1164.000
25.00000 1256.000
25.04000 1237.000
25.08000 1230.000
25.12000 1201.000
25.16000 1154.000
25.20000 1214.000
25.24000 1262.000
25.28000 1226.000
25.32000 1240.000
25.36000 1265.000
25.40000 1247.000
25.44000 1234.000
25.48000 1272.000
25.52000 1263.000
25.56000 1260.000
25.60000 1204.000
25.64000 1226.000
25.68000 1208.000
25.72000 1205.000
25.76000 1160.000
25.80000 1227.000
25.84000 1168.000
25.88000 1197.000
25.92000 1245.000
25.96000 1199.000
26.00000 1170.000
26.04000 1221.000
26.08000 1154.000
26.12000 1203.000
26.16000 1170.000
26.20000 1182.000
26.24000 1210.000
26.28000 1165.000
26.32000 1306.000
26.36000 1272.000
26.40000 1263.000
26.44000 1274.000
26.48000 1278.000
26.52000 1327.000
26.56000 1407.000
26.60000 1464.000
26.64000 1604.000
26.68000 1539.000
26.72000 1766.000
26.76000 1951.000
26.80000 2011.000
26.84000 2087.000
26.88000 2245.000
26.92000 2283.000
26.96000 2231.000
27.00000 2172.000
27.04000 2083.000
27.08000 1868.000
27.12000 1860.000
27.16000 1691.000
27.20000 1545.000
27.24000 1501.000
27.28000 1476.000
27.32000 1474.000
27.36000 1498.000
27.40000 1562.000
27.44000 1569.000
27.48000 1899.000
27.52000 2114.000
27.56000 2055.000
27.60000 1931.000
27.64000 1517.000
27.68000 1406.000
27.72000 1208.000
27.76000 1219.000
27.80000 1177.000
27.84000 1127.000
27.88000 1241.000
27.92000 1204.000
27.96000 1136.000
28.00000 1169.000
28.04000 1157.000
28.08000 1151.000
28.12000 1198.000
28.16000 1119.000
28.20000 1176.000
28.24000 1169.000
28.28000 1207.000
28.32000 1213.000
28.36000 1164.000
28.40000 1120.000
28.44000 1225.000
28.48000 1194.000
28.52000 1182.000
28.56000 1218.000
28.60000 1208.000
28.64000 1100.000
28.68000 1131.000
28.72000 1062.000
28.76000 1137.000
28.80000 1133.000
28.84000 1092.000
28.88000 1099.000
28.92000 1070.000
28.96000 1042.000
29.00000 1107.000
29.04000 1105.000
29.08000 1090.000
29.12000 1052.000
29.16000 1096.000
29.20000 1058.000
29.24000 1086.000
29.28000 1065.000
29.32000 1088.000
29.36000 1139.000
29.40000 1144.000
29.44000 1041.000
29.48000 1099.000
29.52000 1014.000
29.56000 1110.000
29.60000 1058.000
29.64000 1090.000
29.68000 1091.000
29.72000 1135.000
29.76000 1069.000
29.80000 1074.000
29.84000 1039.000
29.88000 1117.000
29.92000 1040.000
29.96000 1059.000
30.00000 1085.000
30.04000 1018.000
30.08000 1070.000
30.12000 1097.000
30.16000 1047.000
30.20000 975.000
30.24000 1048.000
30.28000 1061.000
30.32000 1040.000
30.36000 1024.000
30.40000 1039.000
30.44000 1000.000
30.48000 1102.000
30.52000 1053.000
30.56000 1077.000
30.60000 1035.000
30.64000 1129.000
30.68000 1105.000
30.72000 1125.000
30.76000 1069.000
30.80000 1133.000
30.84000 1105.000
30.88000 1136.000
30.92000 1212.000
30.96000 1206.000
31.00000 1316.000
31.04000 1389.000
31.08000 1522.000
31.12000 1478.000
31.16000 1586.000
31.20000 1549.000
31.24000 1599.000
31.28000 1584.000
31.32000 1578.000
31.36000 1488.000
31.40000 1434.000
31.44000 1334.000
31.48000 1248.000
31.52000 1257.000
31.56000 1183.000
31.60000 1086.000
31.64000 1070.000
31.68000 1115.000
31.72000 1040.000
31.76000 1050.000
31.80000 989.000
31.84000 981.000
31.88000 938.000
31.92000 968.000
31.96000 983.000
32.00000 908.000
32.04000 976.000
32.08000 915.000
32.12000 957.000
32.16000 944.000
32.20000 885.000
32.24000 945.000
32.28000 967.000
32.32000 909.000
32.36000 929.000
32.40000 891.000
32.44000 900.000
32.48000 917.000
32.52000 899.000
32.56000 921.000
32.60000 805.000
32.64000 872.000
32.68000 826.000
32.72000 841.000
32.76000 854.000
32.80000 883.000
32.84000 847.000
32.88000 847.000
32.92000 806.000
32.96000 878.000
33.00000 822.000
33.04000 863.000
33.08000 891.000
33.12000 863.000
33.16000 820.000
33.20000 836.000
33.24000 817.000
33.28000 839.000
33.32000 810.000
33.36000 834.000
33.40000 834.000
33.44000 890.000
33.48000 839.000
33.52000 757.000
33.56000 798.000
33.60000 790.000
33.64000 787.000
33.68000 811.000
33.72000 805.000
33.76000 793.000
33.80000 784.000
33.84000 838.000
33.88000 808.000
33.92000 804.000
33.96000 782.000
34.00000 717.000
34.04000 776.000
34.08000 778.000
34.12000 756.000
34.16000 701.000
34.20000 735.000
34.24000 760.000
34.28000 760.000
34.32000 771.000
34.36000 750.000
34.40000 705.000
34.44000 742.000
34.48000 785.000
34.52000 746.000
34.56000 669.000
34.60000 733.000
34.64000 678.000
34.68000 694.000
34.72000 728.000
34.76000 741.000
34.80000 776.000
34.84000 705.000
34.88000 756.000
34.92000 739.000
34.96000 726.000
35.00000 769.000
35.04000 743.000
35.08000 743.000
35.12000 741.000
35.16000 699.000
35.20000 720.000
35.24000 733.000
35.28000 712.000
35.32000 675.000
35.36000 700.000
35.40000 679.000
35.44000 669.000
35.48000 732.000
35.52000 669.000
35.56000 698.000
35.60000 669.000
35.64000 687.000
35.68000 647.000
35.72000 686.000
35.76000 647.000
35.80000 643.000
35.84000 638.000
35.88000 651.000
35.92000 655.000
35.96000 636.000
36.00000 637.000
36.04000 642.000
36.08000 636.000
36.12000 670.000
36.16000 676.000
36.20000 590.000
36.24000 580.000
36.28000 625.000
36.32000 641.000
36.36000 595.000
36.40000 658.000
36.44000 575.000
36.48000 627.000
36.52000 612.000
36.56000 605.000
36.60000 622.000
36.64000 583.000
36.68000 584.000
36.72000 599.000
36.76000 676.000
36.80000 593.000
36.84000 573.000
36.88000 611.000
36.92000 609.000
36.96000 621.000
37.00000 596.000
37.04000 596.000
37.08000 563.000
37.12000 577.000
37.16000 624.000
37.20000 596.000
37.24000 591.000
37.28000 552.000
37.32000 601.000
37.36000 614.000
37.40000 606.000
37.44000 573.000
37.48000 590.000
37.52000 589.000
37.56000 567.000
37.60000 550.000
37.64000 543.000
37.68000 593.000
37.72000 529.000
37.76000 537.000
37.80000 561.000
37.84000 556.000
37.88000 613.000
37.92000 588.000
37.96000 598.000
38.00000 599.000
38.04000 578.000
38.08000 594.000
38.12000 578.000
38.16000 556.000
38.20000 610.000
38.24000 591.000
38.28000 558.000
38.32000 584.000
38.36000 665.000
38.40000 650.000
38.44000 670.000
38.48000 649.000
38.52000 604.000
38.56000 647.000
38.60000 633.000
38.64000 645.000
38.68000 652.000
38.72000 574.000
38.76000 613.000
38.80000 561.000
38.84000 568.000
38.88000 543.000
38.92000 564.000
38.96000 526.000
39.00000 556.000
39.04000 578.000
39.08000 557.000
39.12000 542.000
39.16000 525.000
39.20000 582.000
39.24000 507.000
39.28000 536.000
39.32000 556.000
39.36000 559.000
39.40000 516.000
39.44000 532.000
39.48000 540.000
39.52000 535.000
39.56000 506.000
39.60000 545.000
39.64000 499.000
39.68000 500.000
39.72000 555.000
39.76000 525.000
39.80000 560.000
39.84000 535.000
39.88000 530.000
39.92000 517.000
39.96000 531.000
40.00000 508.000
40.04000 501.000
40.08000 503.000
40.12000 499.000
40.16000 534.000
40.20000 483.000
40.24000 544.000
40.28000 535.000
40.32000 479.000
40.36000 498.000
40.40000 544.000
40.44000 530.000
40.48000 524.000
40.52000 506.000
40.56000 526.000
40.60000 517.000
40.64000 513.000
40.68000 522.000
40.72000 474.000
40.76000 524.000
40.80000 505.000
40.84000 533.000
40.88000 554.000
40.92000 508.000
40.96000 500.000
41.00000 495.000
41.04000 485.000
41.08000 529.000
41.12000 478.000
41.16000 499.000
41.20000 488.000
41.24000 496.000
41.28000 510.000
41.32000 509.000
41.36000 540.000
41.40000 524.000
41.44000 523.000
41.48000 547.000
41.52000 492.000
41.56000 544.000
41.60000 517.000
41.64000 504.000
41.68000 489.000
41.72000 514.000
41.76000 501.000
41.80000 555.000
41.84000 523.000
41.88000 506.000
41.92000 531.000
41.96000 521.000
42.00000 514.000
42.04000 526.000
42.08000 512.000
42.12000 524.000
42.16000 554.000
42.20000 518.000
42.24000 525.000
42.28000 536.000
42.32000 529.000
42.36000 525.000
42.40000 509.000
42.44000 471.000
42.48000 517.000
42.52000 517.000
42.56000 521.000
42.60000 527.000
42.64000 545.000
42.68000 508.000
42.72000 530.000
42.76000 525.000
42.80000 500.000
42.84000 570.000
42.88000 480.000
42.92000 537.000
42.96000 498.000
43.00000 569.000
43.04000 513.000
43.08000 513.000
43.12000 508.000
43.16000 523.000
43.20000 520.000
43.24000 522.000
43.28000 521.000
43.32000 507.000
43.36000 519.000
43.40000 491.000
43.44000 509.000
43.48000 493.000
43.52000 521.000
43.56000 503.000
43.60000 530.000
43.64000 517.000
43.68000 538.000
43.72000 552.000
43.76000 563.000
43.80000 544.000
43.84000 504.000
43.88000 537.000
43.92000 479.000
43.96000 533.000
44.00000 519.000
44.04000 518.000
44.08000 536.000
44.12000 578.000
44.16000 513.000
44.20000 560.000
44.24000 513.000
44.28000 562.000
44.32000 541.000
44.36000 602.000
44.40000 569.000
44.44000 561.000
44.48000 616.000
44.52000 587.000
44.56000 680.000
44.60000 681.000
44.64000 739.000
44.68000 742.000
44.72000 753.000
44.76000 657.000
44.80000 720.000
44.84000 769.000
44.88000 755.000
44.92000 667.000
44.96000 701.000
45.00000 708.000
45.04000 617.000
45.08000 596.000
45.12000 570.000
45.16000 610.000
45.20000 537.000
45.24000 565.000
45.28000 583.000
45.32000 484.000
45.36000 544.000
45.40000 484.000
45.44000 560.000
45.48000 525.000
45.52000 494.000
45.56000 485.000
45.60000 545.000
45.64000 498.000
45.68000 546.000
45.72000 531.000
45.76000 545.000
45.80000 507.000
45.84000 497.000
45.88000 521.000
45.92000 525.000
45.96000 498.000
46.00000 475.000
46.04000 468.000
46.08000 471.000
46.12000 473.000
46.16000 476.000
46.20000 487.000
46.24000 503.000
46.28000 464.000
46.32000 511.000
46.36000 486.000
46.40000 484.000
46.44000 481.000
46.48000 494.000
46.52000 501.000
46.56000 492.000
46.60000 472.000
46.64000 477.000
46.68000 574.000
46.72000 466.000
46.76000 484.000
46.80000 517.000
46.84000 484.000
46.88000 519.000
46.92000 486.000
46.96000 484.000
47.00000 498.000
47.04000 455.000
47.08000 443.000
47.12000 440.000
47.16000 431.000
47.20000 458.000
47.24000 487.000
47.28000 447.000
47.32000 466.000
47.36000 473.000
47.40000 491.000
47.44000 491.000
47.48000 442.000
47.52000 465.000
47.56000 518.000
47.60000 483.000
47.64000 459.000
47.68000 454.000
47.72000 440.000
47.76000 459.000
47.80000 448.000
47.84000 499.000
47.88000 466.000
47.92000 422.000
47.96000 454.000
48.00000 487.000
48.04000 466.000
48.08000 434.000
48.12000 474.000
48.16000 455.000
48.20000 459.000
48.24000 435.000
48.28000 446.000
48.32000 500.000
48.36000 484.000
48.40000 484.000
48.44000 469.000
48.48000 443.000
48.52000 446.000
48.56000 474.000
48.60000 465.000
48.64000 466.000
48.68000 487.000
48.72000 487.000
48.76000 458.000
48.80000 435.000
48.84000 448.000
48.88000 415.000
48.92000 413.000
48.96000 434.000
49.00000 484.000
49.04000 440.000
49.08000 449.000
49.12000 451.000
49.16000 412.000
49.20000 452.000
49.24000 451.000
49.28000 458.000
49.32000 452.000
49.36000 441.000
49.40000 413.000
49.44000 422.000
49.48000 425.000
49.52000 457.000
49.56000 416.000
49.60000 491.000
49.64000 434.000
49.68000 403.000
49.72000 404.000
49.76000 462.000
49.80000 430.000
49.84000 450.000
49.88000 465.000
49.92000 460.000
49.96000 464.000
50.00000 475.000
50.04000 473.000
50.08000 423.000
50.12000 428.000
50.16000 432.000
50.20000 429.000
50.24000 460.000
50.28000 475.000
50.32000 456.000
50.36000 417.000
50.40000 457.000
50.44000 461.000
50.48000 484.000
50.52000 460.000
50.56000 432.000
50.60000 445.000
50.64000 450.000
50.68000 446.000
50.72000 399.000
50.76000 479.000
50.80000 424.000
50.84000 430.000
50.88000 406.000
50.92000 436.000
50.96000 446.000
51.00000 436.000
51.04000 428.000
51.08000 434.000
51.12000 472.000
51.16000 471.000
51.20000 425.000
51.24000 423.000
51.28000 427.000
51.32000 441.000
51.36000 418.000
51.40000 431.000
51.44000 427.000
51.48000 416.000
51.52000 443.000
51.56000 466.000
51.60000 433.000
51.64000 426.000
51.68000 457.000
51.72000 472.000
51.76000 408.000
51.80000 462.000
51.84000 390.000
51.88000 411.000
51.92000 431.000
51.96000 421.000
52.00000 403.000
52.04000 437.000
52.08000 445.000
52.12000 434.000
52.16000 407.000
52.20000 413.000
52.24000 440.000
52.28000 433.000
52.32000 420.000
52.36000 416.000
52.40000 431.000
52.44000 429.000
52.48000 439.000
52.52000 445.000
52.56000 434.000
52.60000 430.000
52.64000 458.000
52.68000 413.000
52.72000 449.000
52.76000 442.000
52.80000 468.000
52.84000 472.000
52.88000 473.000
52.92000 421.000
52.96000 447.000
53.00000 512.000
53.04000 472.000
53.08000 498.000
53.12000 476.000
53.16000 490.000
53.20000 510.000
53.24000 477.000
53.28000 501.000
53.32000 468.000
53.36000 507.000
53.40000 455.000
53.44000 449.000
53.48000 469.000
53.52000 451.000
53.56000 427.000
53.60000 438.000
53.64000 420.000
53.68000 466.000
53.72000 433.000
53.76000 445.000
53.80000 471.000
53.84000 417.000
53.88000 448.000
53.92000 434.000
53.96000 413.000
54.00000 419.000
54.04000 439.000
54.08000 405.000
54.12000 433.000
54.16000 438.000
54.20000 450.000
54.24000 393.000
54.28000 421.000
54.32000 471.000
54.36000 401.000
54.40000 417.000
54.44000 424.000
54.48000 441.000
54.52000 487.000
54.56000 389.000
54.60000 412.000
54.64000 437.000
54.68000 448.000
54.72000 441.000
54.76000 414.000
54.80000 447.000
54.84000 426.000
54.88000 440.000
54.92000 428.000
54.96000 465.000
55.00000 434.000
55.04000 418.000
55.08000 454.000
55.12000 446.000
55.16000 457.000
55.20000 471.000
55.24000 426.000
55.28000 473.000
55.32000 476.000
55.36000 460.000
55.40000 481.000
55.44000 498.000
55.48000 486.000
55.52000 518.000
55.56000 499.000
55.60000 524.000
55.64000 493.000
55.68000 517.000
55.72000 512.000
55.76000 454.000
55.80000 478.000
55.84000 470.000
55.88000 469.000
55.92000 468.000
55.96000 484.000
56.00000 482.000
56.04000 449.000
56.08000 468.000
56.12000 465.000
56.16000 417.000
56.20000 458.000
56.24000 432.000
56.28000 437.000
56.32000 447.000
56.36000 397.000
56.40000 470.000
56.44000 448.000
56.48000 427.000
56.52000 429.000
56.56000 481.000
56.60000 467.000
56.64000 434.000
56.68000 446.000
56.72000 543.000
56.76000 529.000
56.80000 583.000
56.84000 579.000
56.88000 557.000
56.92000 529.000
56.96000 466.000
57.00000 445.000
57.04000 470.000
57.08000 453.000
57.12000 454.000
57.16000 429.000
57.20000 418.000
57.24000 430.000
57.28000 462.000
57.32000 401.000
57.36000 418.000
57.40000 419.000
57.44000 378.000
57.48000 425.000
57.52000 414.000
57.56000 421.000
57.60000 402.000
57.64000 395.000
57.68000 406.000
57.72000 443.000
57.76000 436.000
57.80000 421.000
57.84000 421.000
57.88000 404.000
57.92000 397.000
57.96000 449.000
58.00000 431.000
58.04000 415.000
58.08000 382.000
58.12000 447.000
58.16000 433.000
58.20000 428.000
58.24000 391.000
58.28000 432.000
58.32000 434.000
58.36000 442.000
58.40000 426.000
58.44000 380.000
58.48000 377.000
58.52000 415.000
58.56000 443.000
58.60000 442.000
58.64000 451.000
58.68000 466.000
58.72000 442.000
58.76000 426.000
58.80000 425.000
58.84000 416.000
58.88000 433.000
58.92000 460.000
58.96000 436.000
59.00000 412.000
59.04000 422.000
59.08000 390.000
59.12000 443.000
59.16000 423.000
59.20000 428.000
59.24000 434.000
59.28000 417.000
59.32000 418.000
59.36000 422.000
59.40000 417.000
59.44000 414.000
59.48000 457.000
59.52000 437.000
59.56000 437.000
59.60000 436.000
59.64000 436.000
59.68000 423.000
59.72000 436.000
59.76000 434.000
59.80000 406.000
59.84000 434.000
59.88000 381.000
59.92000 429.000
59.96000 448.000
60.00000 437.000
60.04000 418.000
60.08000 414.000
60.12000 433.000
60.16000 416.000
60.20000 457.000
60.24000 410.000
60.28000 391.000
60.32000 427.000
60.36000 418.000
60.40000 420.000
60.44000 433.000
60.48000 442.000
60.52000 422.000
60.56000 435.000
60.60000 420.000
60.64000 416.000
60.68000 416.000
60.72000 434.000
60.76000 437.000
60.80000 428.000
60.84000 426.000
60.88000 461.000
60.92000 442.000
60.96000 379.000
61.00000 433.000
61.04000 397.000
61.08000 427.000
61.12000 423.000
61.16000 391.000
61.20000 406.000
61.24000 401.000
61.28000 380.000
61.32000 399.000
61.36000 415.000
61.40000 399.000
61.44000 416.000
61.48000 400.000
61.52000 403.000
61.56000 462.000
61.60000 435.000
61.64000 403.000
61.68000 412.000
61.72000 405.000
61.76000 417.000
61.80000 411.000
61.84000 408.000
61.88000 431.000
61.92000 408.000
61.96000 440.000
62.00000 446.000
62.04000 427.000
62.08000 407.000
62.12000 415.000
62.16000 417.000
62.20000 436.000
62.24000 453.000
62.28000 396.000
62.32000 448.000
62.36000 414.000
62.40000 414.000
62.44000 398.000
62.48000 392.000
62.52000 412.000
62.56000 376.000
62.60000 418.000
62.64000 411.000
62.68000 416.000
62.72000 399.000
62.76000 373.000
62.80000 410.000
62.84000 413.000
62.88000 393.000
62.92000 390.000
62.96000 387.000
63.00000 377.000
63.04000 419.000
63.08000 431.000
63.12000 396.000
63.16000 417.000
63.20000 405.000
63.24000 439.000
63.28000 411.000
63.32000 388.000
63.36000 388.000
63.40000 396.000
63.44000 392.000
63.48000 435.000
63.52000 388.000
63.56000 378.000
63.60000 432.000
63.64000 393.000
63.68000 403.000
63.72000 405.000
63.76000 438.000
63.80000 395.000
63.84000 355.000
63.88000 400.000
63.92000 397.000
63.96000 413.000
64.00000 389.000
64.04000 387.000
64.08000 350.000
64.12000 402.000
64.16000 395.000
64.20000 402.000
64.24000 398.000
64.28000 389.000
64.32000 376.000
64.36000 408.000
64.40000 387.000
64.44000 405.000
64.48000 430.000
64.52000 424.000
64.56000 414.000
64.60000 396.000
64.64000 390.000
64.68000 385.000
64.72000 441.000
64.76000 386.000
64.80000 366.000
64.84000 422.000
64.88000 392.000
64.92000 392.000
64.96000 393.000
65.00000 390.000
65.04000 374.000
65.08000 369.000
65.12000 393.000
65.16000 364.000
65.20000 462.000
65.24000 402.000
65.28000 385.000
65.32000 399.000
65.36000 439.000
65.40000 418.000
65.44000 418.000
65.48000 389.000
65.52000 397.000
65.56000 387.000
65.60000 431.000
65.64000 396.000
65.68000 419.000
65.72000 415.000
65.76000 363.000
65.80000 410.000
65.84000 415.000
65.88000 400.000
65.92000 377.000
65.96000 376.000
66.00000 380.000
66.04000 371.000
66.08000 415.000
66.12000 387.000
66.16000 392.000
66.20000 343.000
66.24000 392.000
66.28000 414.000
66.32000 360.000
66.36000 419.000
66.40000 384.000
66.44000 369.000
66.48000 382.000
66.52000 436.000
66.56000 406.000
66.60000 409.000
66.64000 352.000
66.68000 351.000
66.72000 373.000
66.76000 396.000
66.80000 380.000
66.84000 364.000
66.88000 403.000
66.92000 384.000
66.96000 383.000
67.00000 411.000
67.04000 368.000
67.08000 359.000
67.12000 375.000
67.16000 387.000
67.20000 416.000
67.24000 376.000
67.28000 378.000
67.32000 387.000
67.36000 389.000
67.40000 389.000
67.44000 405.000
67.48000 391.000
67.52000 410.000
67.56000 391.000
67.60000 362.000
67.64000 384.000
67.68000 386.000
67.72000 385.000
67.76000 365.000
67.80000 379.000
67.84000 366.000
67.88000 326.000
67.92000 382.000
67.96000 363.000
68.00000 371.000
68.04000 392.000
68.08000 409.000
68.12000 362.000
68.16000 413.000
68.20000 348.000
68.24000 372.000
68.28000 380.000
68.32000 340.000
68.36000 362.000
68.40000 355.000
68.44000 352.000
68.48000 343.000
68.52000 398.000
68.56000 330.000
68.60000 381.000
68.64000 375.000
68.68000 394.000
68.72000 371.000
68.76000 391.000
68.80000 391.000
68.84000 371.000
68.88000 389.000
68.92000 359.000
68.96000 351.000
69.00000 339.000
69.04000 342.000
69.08000 402.000
69.12000 367.000
69.16000 349.000
69.20000 366.000
69.24000 364.000
69.28000 360.000
69.32000 360.000
69.36000 341.000
69.40000 340.000
69.44000 370.000
69.48000 348.000
69.52000 391.000
69.56000 349.000
69.60000 351.000
69.64000 382.000
69.68000 335.000
69.72000 335.000
69.76000 363.000
69.80000 377.000
69.84000 365.000
69.88000 330.000
69.92000 346.000
