5.00000 4518.000
5.04000 4491.000
5.08000 4566.000
5.12000 4687.000
5.16000 4605.000
5.20000 4524.000
5.24000 4428.000
5.28000 4417.000
5.32000 4270.000
5.36000 4410.000
5.40000 4245.000
5.44000 4167.000
5.48000 4216.000
5.52000 4297.000
5.56000 4139.000
5.60000 4234.000
5.64000 4034.000
5.68000 4012.000
5.72000 4023.000
5.76000 3935.000
5.80000 4030.000
5.84000 3920.000
5.88000 3845.000
5.92000 3881.000
5.96000 3729.000
6.00000 3743.000
6.04000 3787.000
6.08000 3783.000
6.12000 3524.000
6.16000 3697.000
6.20000 3790.000
6.24000 3645.000
6.28000 3629.000
6.32000 3537.000
6.36000 3597.000
6.40000 3431.000
6.44000 3444.000
6.48000 3425.000
6.52000 3527.000
6.56000 3373.000
6.60000 3459.000
6.64000 3534.000
6.68000 3362.000
6.72000 3343.000
6.76000 3345.000
6.80000 3169.000
6.84000 3192.000
6.88000 3295.000
6.92000 3233.000
6.96000 3268.000
7.00000 3182.000
7.04000 3099.000
7.08000 3191.000
7.12000 3125.000
7.16000 3116.000
7.20000 3164.000
7.24000 3068.000
7.28000 3119.000
7.32000 3015.000
7.36000 3020.000
7.40000 3045.000
7.44000 2922.000
7.48000 2997.000
7.52000 2959.000
7.56000 2933.000
7.60000 3084.000
7.64000 2818.000
7.68000 2983.000
7.72000 2842.000
7.76000 2855.000
7.80000 2899.000
7.84000 2957.000
7.88000 2824.000
7.92000 2982.000
7.96000 3036.000
8.00000 2984.000
8.04000 3291.000
8.08000 3597.000
8.12000 4068.000
8.16000 4378.000
8.20000 4670.000
8.24000 4899.000
8.28000 5167.000
8.32000 4966.000
8.36000 4768.000
8.40000 4369.000
8.44000 3930.000
8.48000 3641.000
8.52000 3181.000
8.56000 2878.000
8.60000 2724.000
8.64000 2655.000
8.68000 2573.000
8.72000 2590.000
8.76000 2607.000
8.80000 2541.000
8.84000 2511.000
8.88000 2525.000
8.92000 2538.000
8.96000 2505.000
9.00000 2372.000
9.04000 2392.000
9.08000 2424.000
9.12000 2513.000
9.16000 2333.000
9.20000 2360.000
9.24000 2423.000
9.28000 2338.000
9.32000 2427.000
9.36000 2319.000
9.40000 2477.000
9.44000 2285.000
9.48000 2311.000
9.52000 2365.000
9.56000 2376.000
9.60000 2365.000
9.64000 2300.000
9.68000 2406.000
9.72000 2264.000
9.76000 2339.000
9.80000 2203.000
9.84000 2201.000
9.88000 2273.000
9.92000 2147.000
9.96000 2163.000
10.00000 2161.000
10.04000 2240.000
10.08000 2212.000
10.12000 2161.000
10.16000 2229.000
10.20000 2224.000
10.24000 2178.000
10.28000 2146.000
10.32000 2234.000
10.36000 2188.000
10.40000 2172.000
10.44000 2116.000
10.48000 2259.000
10.52000 2235.000
10.56000 2333.000
10.60000 2240.000
10.64000 2188.000
10.68000 2204.000
10.72000 2236.000
10.76000 2276.000
10.80000 2125.000
10.84000 2069.000
10.88000 2150.000
10.92000 2146.000
10.96000 2057.000
11.00000 2126.000
11.04000 2052.000
11.08000 2025.000
11.12000 2033.000
11.16000 2066.000
11.20000 2069.000
11.24000 2057.000
11.28000 2096.000
11.32000 2062.000
11.36000 2038.000
11.40000 1981.000
11.44000 2038.000
11.48000 2056.000
11.52000 2033.000
11.56000 2026.000
11.60000 1957.000
11.64000 2027.000
11.68000 2064.000
11.72000 2026.000
11.76000 1966.000
11.80000 2001.000
11.84000 2042.000
11.88000 2143.000
11.92000 2112.000
11.96000 2153.000
12.00000 2230.000
12.04000 2205.000
12.08000 2235.000
12.12000 2226.000
12.16000 2128.000
12.20000 2155.000
12.24000 2054.000
12.28000 2109.000
12.32000 2110.000
12.36000 2124.000
12.40000 2127.000
12.44000 2111.000
12.48000 2294.000
12.52000 2453.000
12.56000 2784.000
12.60000 3196.000
12.64000 3715.000
12.68000 4033.000
12.72000 4444.000
12.76000 4603.000
12.80000 4713.000
12.84000 4480.000
12.88000 4173.000
12.92000 3669.000
12.96000 3254.000
13.00000 2729.000
13.04000 2521.000
13.08000 2131.000
13.12000 2041.000
13.16000 1996.000
13.20000 2056.000
13.24000 2038.000
13.28000 1968.000
13.32000 1980.000
13.36000 2008.000
13.40000 2006.000
13.44000 2016.000
13.48000 1919.000
13.52000 1997.000
13.56000 1905.000
13.60000 1843.000
13.64000 2001.000
13.68000 1813.000
13.72000 1885.000
13.76000 1942.000
13.80000 1985.000
13.84000 1903.000
13.88000 1850.000
13.92000 1961.000
13.96000 1878.000
14.00000 1894.000
14.04000 1937.000
14.08000 1884.000
14.12000 1965.000
14.16000 1891.000
14.20000 1938.000
14.24000 1917.000
14.28000 1919.000
14.32000 1885.000
14.36000 1991.000
14.40000 2030.000
14.44000 1832.000
14.48000 1928.000
14.52000 2012.000
14.56000 2002.000
14.60000 1996.000
14.64000 2018.000
14.68000 2108.000
14.72000 2033.000
14.76000 2114.000
14.80000 2077.000
14.84000 1990.000
14.88000 2091.000
14.92000 2271.000
14.96000 2326.000
15.00000 2471.000
15.04000 2553.000
15.08000 2586.000
15.12000 2662.000
15.16000 2696.000
15.20000 2531.000
15.24000 2387.000
15.28000 2318.000
15.32000 2297.000
15.36000 2118.000
15.40000 2056.000
15.44000 2106.000
15.48000 1970.000
15.52000 1999.000
15.56000 1924.000
15.60000 1964.000
15.64000 1996.000
15.68000 1967.000
15.72000 2039.000
15.76000 1964.000
15.80000 2002.000
15.84000 2036.000
15.88000 2054.000
15.92000 2058.000
15.96000 2007.000
16.00000 2146.000
16.04000 2085.000
16.08000 2148.000
16.12000 2194.000
16.16000 2211.000
16.20000 2239.000
16.24000 2333.000
16.28000 2616.000
16.32000 2816.000
16.36000 3129.000
16.40000 3862.000
16.44000 5098.000
16.48000 7397.000
16.52000 9517.000
16.56000 11881.000
16.60000 13790.000
16.64000 14811.000
16.68000 15039.000
16.72000 14026.000
16.76000 12372.000
16.80000 10557.000
16.84000 8304.000
16.88000 6103.000
16.92000 4105.000
16.96000 3007.000
17.00000 2539.000
17.04000 2289.000
17.08000 2304.000
17.12000 2164.000
17.16000 2197.000
17.20000 2123.000
17.24000 2124.000
17.28000 2123.000
17.32000 2204.000
17.36000 2124.000
17.40000 2095.000
17.44000 2148.000
17.48000 2109.000
17.52000 2115.000
17.56000 2140.000
17.60000 2129.000
17.64000 2189.000
17.68000 2090.000
17.72000 2114.000
17.76000 2080.000
17.80000 2105.000
17.84000 2131.000
17.88000 2091.000
17.92000 2063.000
17.96000 2139.000
18.00000 2187.000
18.04000 2147.000
18.08000 2117.000
18.12000 2193.000
18.16000 2192.000
18.20000 2209.000
18.24000 2233.000
18.28000 2204.000
18.32000 2150.000
18.36000 2187.000
18.40000 2158.000
18.44000 2296.000
18.48000 2156.000
18.52000 2151.000
18.56000 2087.000
18.60000 2280.000
18.64000 2245.000
18.68000 2208.000
18.72000 2096.000
18.76000 2249.000
18.80000 2285.000
18.84000 2254.000
18.88000 2326.000
18.92000 2249.000
18.96000 2284.000
19.00000 2312.000
19.04000 2344.000
19.08000 2301.000
19.12000 2330.000
19.16000 2393.000
19.20000 2285.000
19.24000 2357.000
19.28000 2337.000
19.32000 2345.000
19.36000 2295.000
19.40000 2383.000
19.44000 2413.000
19.48000 2389.000
19.52000 2344.000
19.56000 2466.000
19.60000 2466.000
19.64000 2333.000
19.68000 2408.000
19.72000 2359.000
19.76000 2442.000
19.80000 2421.000
19.84000 2537.000
19.88000 2484.000
19.92000 2534.000
19.96000 2436.000
20.00000 2495.000
20.04000 2440.000
20.08000 2490.000
20.12000 2450.000
20.16000 2535.000
20.20000 2491.000
20.24000 2556.000
20.28000 2614.000
20.32000 2654.000
20.36000 2590.000
20.40000 2644.000
20.44000 2575.000
20.48000 2647.000
20.52000 2632.000
20.56000 2713.000
20.60000 2754.000
20.64000 2803.000
20.68000 2750.000
20.72000 2765.000
20.76000 2720.000
20.80000 2708.000
20.84000 2839.000
20.88000 2848.000
20.92000 2846.000
20.96000 3002.000
21.00000 2991.000
21.04000 2922.000
21.08000 2982.000
21.12000 2940.000
21.16000 2919.000
21.20000 2765.000
21.24000 2771.000
21.28000 2748.000
21.32000 2853.000
21.36000 2801.000
21.40000 2742.000
21.44000 2769.000
21.48000 2791.000
21.52000 2725.000
21.56000 2867.000
21.60000 2763.000
21.64000 2851.000
21.68000 2822.000
21.72000 2816.000
21.76000 2739.000
21.80000 2783.000
21.84000 2821.000
21.88000 2876.000
21.92000 2900.000
21.96000 2763.000
22.00000 2799.000
22.04000 2803.000
22.08000 2848.000
22.12000 2806.000
22.16000 2938.000
22.20000 2841.000
22.24000 2892.000
22.28000 2876.000
22.32000 2968.000
22.36000 3011.000
22.40000 2977.000
22.44000 2924.000
22.48000 3191.000
22.52000 3217.000
22.56000 3358.000
22.60000 3292.000
22.64000 3358.000
22.68000 3444.000
22.72000 3255.000
22.76000 3344.000
22.80000 3255.000
22.84000 3118.000
22.88000 3115.000
22.92000 3023.000
22.96000 3050.000
23.00000 2954.000
23.04000 2972.000
23.08000 3006.000
23.12000 3084.000
23.16000 3118.000
23.20000 3206.000
23.24000 3063.000
23.28000 3015.000
23.32000 3046.000
23.36000 3081.000
23.40000 3109.000
23.44000 3045.000
23.48000 3153.000
23.52000 3140.000
23.56000 3098.000
23.60000 3093.000
23.64000 3214.000
23.68000 3132.000
23.72000 3194.000
23.76000 3209.000
23.80000 3421.000
23.84000 3354.000
23.88000 3409.000
23.92000 3448.000
23.96000 3716.000
24.00000 3750.000
24.04000 4023.000
24.08000 4074.000
24.12000 4323.000
24.16000 4446.000
24.20000 4521.000
24.24000 4677.000
24.28000 4701.000
24.32000 4602.000
24.36000 4828.000
24.40000 4814.000
24.44000 4541.000
24.48000 4799.000
24.52000 4691.000
24.56000 4867.000
24.60000 4959.000
24.64000 5403.000
24.68000 5805.000
24.72000 6708.000
24.76000 8316.000
24.80000 10471.000
24.84000 14505.000
24.88000 22676.000
24.92000 36657.000
24.96000 57049.000
25.00000 80360.000
25.04000 105364.000
25.08000 126671.000
25.12000 139793.000
25.16000 141922.000
25.20000 133750.000
25.24000 115577.000
25.28000 95477.000
25.32000 71665.000
25.36000 49342.000
25.40000 29785.000
25.44000 17584.000
25.48000 10855.000
25.52000 8568.000
25.56000 7687.000
25.60000 7541.000
25.64000 8122.000
25.68000 8827.000
25.72000 9564.000
25.76000 10180.000
25.80000 10621.000
25.84000 10496.000
25.88000 9920.000
25.92000 9216.000
25.96000 8472.000
26.00000 7555.000
26.04000 6701.000
26.08000 5795.000
26.12000 5225.000
26.16000 4795.000
26.20000 4396.000
26.24000 4210.000
26.28000 3859.000
26.32000 3684.000
26.36000 3473.000
26.40000 3448.000
26.44000 3341.000
26.48000 3257.000
26.52000 3129.000
26.56000 3051.000
26.60000 2936.000
26.64000 2934.000
26.68000 2924.000
26.72000 2952.000
26.76000 2943.000
26.80000 2984.000
26.84000 3076.000
26.88000 3145.000
26.92000 3157.000
26.96000 3073.000
27.00000 3163.000
27.04000 3244.000
27.08000 3217.000
27.12000 3164.000
27.16000 3099.000
27.20000 3239.000
27.24000 3175.000
27.28000 3286.000
27.32000 3511.000
27.36000 3725.000
27.40000 3990.000
27.44000 4002.000
27.48000 3988.000
27.52000 3946.000
27.56000 3957.000
27.60000 3768.000
27.64000 3632.000
27.68000 3513.000
27.72000 3315.000
27.76000 3265.000
27.80000 3077.000
27.84000 3052.000
27.88000 2967.000
27.92000 3019.000
27.96000 2983.000
28.00000 3024.000
28.04000 2833.000
28.08000 2989.000
28.12000 2945.000
28.16000 2951.000
28.20000 2833.000
28.24000 2823.000
28.28000 2752.000
28.32000 2822.000
28.36000 2709.000
28.40000 2760.000
28.44000 2710.000
28.48000 2685.000
28.52000 2690.000
28.56000 2715.000
28.60000 2720.000
28.64000 2689.000
28.68000 2805.000
28.72000 2735.000
28.76000 2803.000
28.80000 2875.000
28.84000 2910.000
28.88000 3057.000
28.92000 3409.000
28.96000 3788.000
29.00000 4496.000
29.04000 5320.000
29.08000 6519.000
29.12000 7712.000
29.16000 9380.000
29.20000 9385.000
29.24000 10577.000
29.28000 11704.000
29.32000 11560.000
29.36000 10799.000
29.40000 10012.000
29.44000 8774.000
29.48000 7563.000
29.52000 6417.000
29.56000 5408.000
29.60000 4781.000
29.64000 4472.000
29.68000 4042.000
29.72000 4016.000
29.76000 3895.000
29.80000 3800.000
29.84000 3564.000
29.88000 3418.000
29.92000 3238.000
29.96000 2997.000
30.00000 3019.000
30.04000 2865.000
30.08000 2732.000
30.12000 2726.000
30.16000 2697.000
30.20000 2697.000
30.24000 2599.000
30.28000 2702.000
30.32000 2763.000
30.36000 3006.000
30.40000 3242.000
30.44000 3546.000
30.48000 4014.000
30.52000 4213.000
30.56000 4500.000
30.60000 4821.000
30.64000 4805.000
30.68000 4860.000
30.72000 4613.000
30.76000 4214.000
30.80000 3805.000
30.84000 3352.000
30.88000 3061.000
30.92000 2821.000
30.96000 2677.000
31.00000 2598.000
31.04000 2482.000
31.08000 2474.000
31.12000 2315.000
31.16000 2540.000
31.20000 2346.000
31.24000 2379.000
31.28000 2231.000
31.32000 2373.000
31.36000 2306.000
31.40000 2374.000
31.44000 2334.000
31.48000 2289.000
31.52000 2348.000
31.56000 2232.000
31.60000 2395.000
31.64000 2295.000
31.68000 2285.000
31.72000 2347.000
31.76000 2272.000
31.80000 2315.000
31.84000 2304.000
31.88000 2357.000
31.92000 2373.000
31.96000 2487.000
32.00000 2386.000
32.04000 2495.000
32.08000 2528.000
32.12000 2514.000
32.16000 2666.000
32.20000 2738.000
32.24000 2897.000
32.28000 2946.000
32.32000 3028.000
32.36000 3019.000
32.40000 3063.000
32.44000 3041.000
32.48000 2991.000
32.52000 2912.000
32.56000 2835.000
32.60000 2682.000
32.64000 2596.000
32.68000 2573.000
32.72000 2460.000
32.76000 2425.000
32.80000 2456.000
32.84000 2415.000
32.88000 2292.000
32.92000 2345.000
32.96000 2244.000
33.00000 2238.000
33.04000 2188.000
33.08000 2296.000
33.12000 2165.000
33.16000 2122.000
33.20000 2112.000
33.24000 2121.000
33.28000 2066.000
33.32000 2044.000
33.36000 2051.000
33.40000 2030.000
33.44000 1990.000
33.48000 1979.000
33.52000 1956.000
33.56000 2060.000
33.60000 1993.000
33.64000 2065.000
33.68000 2075.000
33.72000 2024.000
33.76000 2088.000
33.80000 1993.000
33.84000 1993.000
33.88000 1952.000
33.92000 2019.000
33.96000 1948.000
34.00000 1912.000
34.04000 2018.000
34.08000 1937.000
34.12000 1872.000
34.16000 1937.000
34.20000 1832.000
34.24000 1870.000
34.28000 1843.000
34.32000 1875.000
34.36000 1917.000
34.40000 1759.000
34.44000 1877.000
34.48000 1806.000
34.52000 1808.000
34.56000 1810.000
34.60000 1792.000
34.64000 1729.000
34.68000 1819.000
34.72000 1799.000
34.76000 1747.000
34.80000 1777.000
34.84000 1720.000
34.88000 1747.000
34.92000 1751.000
34.96000 1736.000
35.00000 1706.000
35.04000 1732.000
35.08000 1676.000
35.12000 1756.000
35.16000 1696.000
35.20000 1700.000
35.24000 1719.000
35.28000 1659.000
35.32000 1772.000
35.36000 1683.000
35.40000 1673.000
35.44000 1739.000
35.48000 1759.000
35.52000 1714.000
35.56000 1755.000
35.60000 1634.000
35.64000 1650.000
35.68000 1643.000
35.72000 1599.000
35.76000 1608.000
35.80000 1539.000
35.84000 1617.000
35.88000 1594.000
35.92000 1591.000
35.96000 1571.000
36.00000 1580.000
36.04000 1560.000
36.08000 1611.000
36.12000 1537.000
36.16000 1563.000
36.20000 1512.000
36.24000 1591.000
36.28000 1527.000
36.32000 1551.000
36.36000 1538.000
36.40000 1520.000
36.44000 1521.000
36.48000 1548.000
36.52000 1583.000
36.56000 1524.000
36.60000 1557.000
36.64000 1562.000
36.68000 1565.000
36.72000 1591.000
36.76000 1563.000
36.80000 1513.000
36.84000 1531.000
36.88000 1502.000
36.92000 1547.000
36.96000 1597.000
37.00000 1600.000
37.04000 1525.000
37.08000 1539.000
37.12000 1439.000
37.16000 1463.000
37.20000 1425.000
37.24000 1387.000
37.28000 1461.000
37.32000 1440.000
37.36000 1425.000
37.40000 1373.000
37.44000 1420.000
37.48000 1419.000
37.52000 1399.000
37.56000 1435.000
37.60000 1365.000
37.64000 1411.000
37.68000 1383.000
37.72000 1398.000
37.76000 1402.000
37.80000 1362.000
37.84000 1385.000
37.88000 1370.000
37.92000 1373.000
37.96000 1395.000
38.00000 1413.000
38.04000 1315.000
38.08000 1449.000
38.12000 1331.000
38.16000 1406.000
38.20000 1351.000
38.24000 1363.000
38.28000 1365.000
38.32000 1341.000
38.36000 1375.000
38.40000 1360.000
38.44000 1399.000
38.48000 1436.000
38.52000 1468.000
38.56000 1491.000
38.60000 1595.000
38.64000 1490.000
38.68000 1470.000
38.72000 1483.000
38.76000 1502.000
38.80000 1522.000
38.84000 1528.000
38.88000 1482.000
38.92000 1566.000
38.96000 1450.000
39.00000 1473.000
39.04000 1448.000
39.08000 1480.000
39.12000 1480.000
39.16000 1369.000
39.20000 1501.000
39.24000 1425.000
39.28000 1419.000
39.32000 1423.000
39.36000 1318.000
39.40000 1354.000
39.44000 1450.000
39.48000 1347.000
39.52000 1288.000
39.56000 1430.000
39.60000 1410.000
39.64000 1414.000
39.68000 1399.000
39.72000 1369.000
39.76000 1410.000
39.80000 1378.000
39.84000 1353.000
39.88000 1385.000
39.92000 1366.000
39.96000 1380.000
40.00000 1371.000
40.04000 1388.000
40.08000 1499.000
40.12000 1476.000
40.16000 1446.000
40.20000 1598.000
40.24000 1551.000
40.28000 1528.000
40.32000 1564.000
40.36000 1510.000
40.40000 1403.000
40.44000 1379.000
40.48000 1427.000
40.52000 1396.000
40.56000 1400.000
40.60000 1437.000
40.64000 1286.000
40.68000 1432.000
40.72000 1392.000
40.76000 1311.000
40.80000 1345.000
40.84000 1395.000
40.88000 1371.000
40.92000 1351.000
40.96000 1395.000
41.00000 1356.000
41.04000 1320.000
41.08000 1369.000
41.12000 1340.000
41.16000 1271.000
41.20000 1364.000
41.24000 1369.000
41.28000 1291.000
41.32000 1376.000
41.36000 1380.000
41.40000 1308.000
41.44000 1398.000
41.48000 1347.000
41.52000 1359.000
41.56000 1385.000
41.60000 1342.000
41.64000 1369.000
41.68000 1442.000
41.72000 1403.000
41.76000 1381.000
41.80000 1410.000
41.84000 1414.000
41.88000 1469.000
41.92000 1409.000
41.96000 1528.000
42.00000 1521.000
42.04000 1631.000
42.08000 1664.000
42.12000 1664.000
42.16000 1671.000
42.20000 1771.000
42.24000 1948.000
42.28000 2015.000
42.32000 2320.000
42.36000 2727.000
42.40000 3388.000
42.44000 4149.000
42.48000 4981.000
42.52000 5641.000
42.56000 6139.000
42.60000 6422.000
42.64000 6169.000
42.68000 5879.000
42.72000 5380.000
42.76000 4607.000
42.80000 3847.000
42.84000 3219.000
42.88000 2774.000
42.92000 2386.000
42.96000 2142.000
43.00000 1979.000
43.04000 1818.000
43.08000 1721.000
43.12000 1591.000
43.16000 1529.000
43.20000 1417.000
43.24000 1444.000
43.28000 1424.000
43.32000 1335.000
43.36000 1380.000
43.40000 1335.000
43.44000 1362.000
43.48000 1277.000
43.52000 1331.000
43.56000 1336.000
43.60000 1314.000
43.64000 1368.000
43.68000 1274.000
43.72000 1203.000
43.76000 1292.000
43.80000 1296.000
43.84000 1298.000
43.88000 1339.000
43.92000 1329.000
43.96000 1317.000
44.00000 1337.000
44.04000 1314.000
44.08000 1366.000
44.12000 1260.000
44.16000 1325.000
44.20000 1289.000
44.24000 1386.000
44.28000 1300.000
44.32000 1371.000
44.36000 1293.000
44.40000 1310.000
44.44000 1304.000
44.48000 1381.000
44.52000 1330.000
44.56000 1318.000
44.60000 1346.000
44.64000 1274.000
44.68000 1257.000
44.72000 1278.000
44.76000 1387.000
44.80000 1277.000
44.84000 1353.000
44.88000 1280.000
44.92000 1340.000
44.96000 1237.000
45.00000 1324.000
45.04000 1402.000
45.08000 1353.000
45.12000 1244.000
45.16000 1293.000
45.20000 1302.000
45.24000 1350.000
45.28000 1273.000
45.32000 1363.000
45.36000 1391.000
45.40000 1361.000
45.44000 1318.000
45.48000 1465.000
45.52000 1423.000
45.56000 1360.000
45.60000 1339.000
45.64000 1386.000
45.68000 1407.000
45.72000 1502.000
45.76000 1530.000
45.80000 1514.000
45.84000 1542.000
45.88000 1650.000
45.92000 1661.000
45.96000 1528.000
46.00000 1562.000
46.04000 1544.000
46.08000 1442.000
46.12000 1495.000
46.16000 1443.000
46.20000 1433.000
46.24000 1349.000
46.28000 1386.000
46.32000 1367.000
46.36000 1339.000
46.40000 1389.000
46.44000 1365.000
46.48000 1303.000
46.52000 1315.000
46.56000 1416.000
46.60000 1375.000
46.64000 1386.000
46.68000 1325.000
46.72000 1442.000
46.76000 1334.000
46.80000 1388.000
46.84000 1404.000
46.88000 1278.000
46.92000 1348.000
46.96000 1345.000
47.00000 1307.000
47.04000 1277.000
47.08000 1256.000
47.12000 1292.000
47.16000 1238.000
47.20000 1279.000
47.24000 1189.000
47.28000 1182.000
47.32000 1186.000
47.36000 1195.000
47.40000 1261.000
47.44000 1174.000
47.48000 1237.000
47.52000 1203.000
47.56000 1199.000
47.60000 1202.000
47.64000 1246.000
47.68000 1241.000
47.72000 1220.000
47.76000 1205.000
47.80000 1225.000
47.84000 1218.000
47.88000 1204.000
47.92000 1314.000
47.96000 1205.000
48.00000 1215.000
48.04000 1199.000
48.08000 1267.000
48.12000 1244.000
48.16000 1285.000
48.20000 1200.000
48.24000 1308.000
48.28000 1261.000
48.32000 1221.000
48.36000 1294.000
48.40000 1177.000
48.44000 1170.000
48.48000 1233.000
48.52000 1241.000
48.56000 1277.000
48.60000 1225.000
48.64000 1294.000
48.68000 1220.000
48.72000 1241.000
48.76000 1229.000
48.80000 1253.000
48.84000 1254.000
48.88000 1195.000
48.92000 1184.000
48.96000 1217.000
49.00000 1264.000
49.04000 1240.000
49.08000 1218.000
49.12000 1191.000
49.16000 1227.000
49.20000 1249.000
49.24000 1209.000
49.28000 1216.000
49.32000 1249.000
49.36000 1198.000
49.40000 1203.000
49.44000 1202.000
49.48000 1204.000
49.52000 1258.000
49.56000 1301.000
49.60000 1296.000
49.64000 1251.000
49.68000 1192.000
49.72000 1321.000
49.76000 1336.000
49.80000 1352.000
49.84000 1420.000
49.88000 1394.000
49.92000 1375.000
49.96000 1410.000
50.00000 1486.000
50.04000 1475.000
50.08000 1506.000
50.12000 1467.000
50.16000 1444.000
50.20000 1499.000
50.24000 1489.000
50.28000 1444.000
50.32000 1416.000
50.36000 1443.000
50.40000 1478.000
50.44000 1422.000
50.48000 1444.000
50.52000 1476.000
50.56000 1384.000
50.60000 1457.000
50.64000 1542.000
50.68000 1408.000
50.72000 1478.000
50.76000 1452.000
50.80000 1492.000
50.84000 1449.000
50.88000 1472.000
50.92000 1448.000
50.96000 1492.000
51.00000 1505.000
51.04000 1560.000
51.08000 1511.000
51.12000 1554.000
51.16000 1733.000
51.20000 1839.000
51.24000 1990.000
51.28000 2158.000
51.32000 2349.000
51.36000 2967.000
51.40000 3871.000
51.44000 5400.000
51.48000 7693.000
51.52000 10238.000
51.56000 12840.000
51.60000 15384.000
51.64000 17873.000
51.68000 18709.000
51.72000 19234.000
51.76000 18505.000
51.80000 16748.000
51.84000 14617.000
51.88000 12019.000
51.92000 9132.000
51.96000 6834.000
52.00000 5093.000
52.04000 3767.000
52.08000 2833.000
52.12000 2264.000
52.16000 1935.000
52.20000 1738.000
52.24000 1648.000
52.28000 1580.000
52.32000 1492.000
52.36000 1439.000
52.40000 1461.000
52.44000 1437.000
52.48000 1393.000
52.52000 1392.000
52.56000 1341.000
52.60000 1308.000
52.64000 1308.000
52.68000 1319.000
52.72000 1319.000
52.76000 1351.000
52.80000 1308.000
52.84000 1453.000
52.88000 1436.000
52.92000 1439.000
52.96000 1534.000
53.00000 1639.000
53.04000 1658.000
53.08000 1749.000
53.12000 1781.000
53.16000 1756.000
53.20000 1586.000
53.24000 1638.000
53.28000 1556.000
53.32000 1495.000
53.36000 1478.000
53.40000 1432.000
53.44000 1337.000
53.48000 1300.000
53.52000 1251.000
53.56000 1240.000
53.60000 1201.000
53.64000 1213.000
53.68000 1235.000
53.72000 1176.000
53.76000 1193.000
53.80000 1222.000
53.84000 1170.000
53.88000 1181.000
53.92000 1174.000
53.96000 1158.000
54.00000 1177.000
54.04000 1103.000
54.08000 1123.000
54.12000 1095.000
54.16000 1140.000
54.20000 1143.000
54.24000 1169.000
54.28000 1147.000
54.32000 1106.000
54.36000 1195.000
54.40000 1070.000
54.44000 1177.000
54.48000 1173.000
54.52000 1113.000
54.56000 1167.000
54.60000 1212.000
54.64000 1245.000
54.68000 1164.000
54.72000 1242.000
54.76000 1208.000
54.80000 1242.000
54.84000 1221.000
54.88000 1252.000
54.92000 1209.000
54.96000 1194.000
55.00000 1208.000
55.04000 1194.000
55.08000 1150.000
55.12000 1130.000
55.16000 1217.000
55.20000 1123.000
55.24000 1131.000
55.28000 1105.000
55.32000 1150.000
55.36000 993.000
55.40000 1025.000
55.44000 1089.000
55.48000 1118.000
55.52000 1141.000
55.56000 1094.000
55.60000 1075.000
55.64000 1117.000
55.68000 1096.000
55.72000 1074.000
55.76000 1066.000
55.80000 1117.000
55.84000 1162.000
55.88000 1128.000
55.92000 1076.000
55.96000 1150.000
56.00000 1113.000
56.04000 1135.000
56.08000 1120.000
56.12000 1144.000
56.16000 1087.000
56.20000 1112.000
56.24000 1090.000
56.28000 1188.000
56.32000 1062.000
56.36000 1054.000
56.40000 1159.000
56.44000 1111.000
56.48000 1111.000
56.52000 1051.000
56.56000 1145.000
56.60000 1097.000
56.64000 1088.000
56.68000 1067.000
56.72000 1118.000
56.76000 1157.000
56.80000 1048.000
56.84000 1079.000
56.88000 1108.000
56.92000 1070.000
56.96000 1092.000
57.00000 1047.000
57.04000 1080.000
57.08000 1042.000
57.12000 1087.000
57.16000 1075.000
57.20000 1070.000
57.24000 993.000
57.28000 1142.000
57.32000 1071.000
57.36000 1115.000
57.40000 1065.000
57.44000 1075.000
57.48000 1059.000
57.52000 1078.000
57.56000 1074.000
57.60000 1109.000
57.64000 1070.000
57.68000 1142.000
57.72000 1120.000
57.76000 1103.000
57.80000 1128.000
57.84000 1114.000
57.88000 1110.000
57.92000 1086.000
57.96000 1087.000
58.00000 1133.000
58.04000 1163.000
58.08000 1112.000
58.12000 1079.000
58.16000 1143.000
58.20000 1082.000
58.24000 1108.000
58.28000 1148.000
58.32000 1112.000
58.36000 1134.000
58.40000 1137.000
58.44000 1069.000
58.48000 1128.000
58.52000 1136.000
58.56000 1116.000
58.60000 1143.000
58.64000 1096.000
58.68000 1106.000
58.72000 1106.000
58.76000 1153.000
58.80000 1105.000
58.84000 1111.000
58.88000 1104.000
58.92000 1100.000
58.96000 1105.000
59.00000 1107.000
59.04000 1063.000
59.08000 1063.000
59.12000 1060.000
59.16000 1065.000
59.20000 1106.000
59.24000 1090.000
59.28000 1151.000
59.32000 1137.000
59.36000 1104.000
59.40000 1087.000
59.44000 1099.000
59.48000 1158.000
59.52000 1091.000
59.56000 1101.000
59.60000 1175.000
59.64000 1077.000
59.68000 1151.000
59.72000 1061.000
59.76000 1120.000
59.80000 1087.000
59.84000 1039.000
59.88000 1065.000
59.92000 1159.000
59.96000 1105.000
60.00000 1071.000
60.04000 1098.000
60.08000 1100.000
60.12000 1114.000
60.16000 1114.000
60.20000 1069.000
60.24000 1183.000
60.28000 1173.000
60.32000 1128.000
60.36000 1195.000
60.40000 1223.000
60.44000 1267.000
60.48000 1354.000
60.52000 1372.000
60.56000 1508.000
60.60000 1593.000
60.64000 1664.000
60.68000 1710.000
60.72000 1794.000
60.76000 1817.000
60.80000 1947.000
60.84000 1967.000
60.88000 1938.000
60.92000 2038.000
60.96000 2007.000
61.00000 2058.000
61.04000 1929.000
61.08000 1869.000
61.12000 1946.000
61.16000 1894.000
61.20000 1781.000
61.24000 1687.000
61.28000 1640.000
61.32000 1533.000
61.36000 1476.000
61.40000 1381.000
61.44000 1281.000
61.48000 1244.000
61.52000 1222.000
61.56000 1150.000
61.60000 1166.000
61.64000 1081.000
61.68000 1109.000
61.72000 1090.000
61.76000 1147.000
61.80000 1136.000
61.84000 1106.000
61.88000 1139.000
61.92000 1132.000
61.96000 1106.000
62.00000 1107.000
62.04000 1201.000
62.08000 1146.000
62.12000 1129.000
62.16000 1130.000
62.20000 1175.000
62.24000 1087.000
62.28000 1119.000
62.32000 1098.000
62.36000 1143.000
62.40000 1083.000
62.44000 1140.000
62.48000 1048.000
62.52000 1081.000
62.56000 1060.000
62.60000 1073.000
62.64000 1083.000
62.68000 1168.000
62.72000 1074.000
62.76000 1115.000
62.80000 1105.000
62.84000 1098.000
62.88000 1100.000
62.92000 1030.000
62.96000 1096.000
63.00000 1014.000
63.04000 1082.000
63.08000 1022.000
63.12000 1075.000
63.16000 1095.000
63.20000 1038.000
63.24000 993.000
63.28000 1093.000
63.32000 1035.000
63.36000 1070.000
63.40000 1028.000
63.44000 1140.000
63.48000 1050.000
63.52000 1101.000
63.56000 1110.000
63.60000 1088.000
63.64000 1109.000
63.68000 1084.000
63.72000 1091.000
63.76000 1116.000
63.80000 1200.000
63.84000 1133.000
63.88000 1101.000
63.92000 1114.000
63.96000 1094.000
64.00000 1140.000
64.04000 1140.000
64.08000 1053.000
64.12000 1096.000
64.16000 1052.000
64.20000 1082.000
64.24000 1059.000
64.28000 1020.000
64.32000 1103.000
64.36000 1057.000
64.40000 1085.000
64.44000 1072.000
64.48000 1095.000
64.52000 1080.000
64.56000 1102.000
64.60000 1062.000
64.64000 977.000
64.68000 1135.000
64.72000 1068.000
64.76000 1018.000
64.80000 1058.000
64.84000 1012.000
64.88000 1109.000
64.92000 1062.000
64.96000 1052.000
65.00000 1023.000
65.04000 1086.000
65.08000 1081.000
65.12000 1033.000
65.16000 1049.000
65.20000 1072.000
65.24000 1056.000
65.28000 1058.000
65.32000 1018.000
65.36000 1103.000
65.40000 1063.000
65.44000 1070.000
65.48000 1025.000
65.52000 1052.000
65.56000 1046.000
65.60000 1060.000
65.64000 1094.000
65.68000 1026.000
65.72000 1047.000
65.76000 1001.000
65.80000 1023.000
65.84000 1072.000
65.88000 1074.000
65.92000 1010.000
65.96000 1016.000
66.00000 1032.000
66.04000 986.000
66.08000 1051.000
66.12000 1037.000
66.16000 1104.000
66.20000 1039.000
66.24000 966.000
66.28000 977.000
66.32000 1029.000
66.36000 977.000
66.40000 1039.000
66.44000 1052.000
66.48000 975.000
66.52000 1001.000
66.56000 1104.000
66.60000 1046.000
66.64000 1018.000
66.68000 1069.000
66.72000 992.000
66.76000 1045.000
66.80000 1054.000
66.84000 1076.000
66.88000 996.000
66.92000 987.000
66.96000 1036.000
67.00000 1059.000
67.04000 1033.000
67.08000 1025.000
67.12000 1060.000
67.16000 1075.000
67.20000 1079.000
67.24000 1000.000
67.28000 1036.000
67.32000 1094.000
67.36000 1067.000
67.40000 1053.000
67.44000 1037.000
67.48000 1029.000
67.52000 1039.000
67.56000 1009.000
67.60000 1001.000
67.64000 996.000
67.68000 1073.000
67.72000 994.000
67.76000 1097.000
67.80000 1019.000
67.84000 1069.000
67.88000 1028.000
67.92000 1049.000
67.96000 1024.000
68.00000 951.000
68.04000 1017.000
68.08000 992.000
68.12000 960.000
68.16000 954.000
68.20000 986.000
68.24000 987.000
68.28000 999.000
68.32000 1026.000
68.36000 1015.000
68.40000 999.000
68.44000 961.000
68.48000 981.000
68.52000 1005.000
68.56000 983.000
68.60000 991.000
68.64000 1032.000
68.68000 990.000
68.72000 1045.000
68.76000 987.000
68.80000 967.000
68.84000 992.000
68.88000 1044.000
68.92000 931.000
68.96000 1004.000
69.00000 964.000
69.04000 922.000
69.08000 950.000
69.12000 998.000
69.16000 971.000
69.20000 979.000
69.24000 965.000
69.28000 1014.000
69.32000 985.000
69.36000 1025.000
69.40000 1020.000
69.44000 1021.000
69.48000 981.000
69.52000 1003.000
69.56000 975.000
69.60000 958.000
69.64000 1003.000
69.68000 1027.000
69.72000 960.000
69.76000 987.000
69.80000 993.000
69.84000 968.000
69.88000 954.000
69.92000 945.000
