5.00000 3389.000
5.04000 3296.000
5.08000 3395.000
5.12000 3318.000
5.16000 3244.000
5.20000 3186.000
5.24000 3146.000
5.28000 3149.000
5.32000 3184.000
5.36000 3064.000
5.40000 3000.000
5.44000 3085.000
5.48000 3041.000
5.52000 3027.000
5.56000 3083.000
5.60000 3090.000
5.64000 3001.000
5.68000 3057.000
5.72000 3074.000
5.76000 3029.000
5.80000 3080.000
5.84000 3006.000
5.88000 3127.000
5.92000 3210.000
5.96000 3234.000
6.00000 3272.000
6.04000 3327.000
6.08000 3509.000
6.12000 3882.000
6.16000 4208.000
6.20000 4400.000
6.24000 4427.000
6.28000 4370.000
6.32000 4181.000
6.36000 4364.000
6.40000 4405.000
6.44000 4923.000
6.48000 5548.000
6.52000 6365.000
6.56000 7639.000
6.60000 9548.000
6.64000 12541.000
6.68000 17387.000
6.72000 25459.000
6.76000 38416.000
6.80000 52632.000
6.84000 58774.000
6.88000 50767.000
6.92000 35747.000
6.96000 23658.000
7.00000 15463.000
7.04000 10425.000
7.08000 7427.000
7.12000 5912.000
7.16000 5222.000
7.20000 4686.000
7.24000 4533.000
7.28000 4456.000
7.32000 4312.000
7.36000 4395.000
7.40000 4429.000
7.44000 4286.000
7.48000 4387.000
7.52000 4566.000
7.56000 4516.000
7.60000 4577.000
7.64000 4737.000
7.68000 4869.000
7.72000 4888.000
7.76000 4881.000
7.80000 4975.000
7.84000 4954.000
7.88000 4895.000
7.92000 4943.000
7.96000 4874.000
8.00000 4937.000
8.04000 5002.000
8.08000 5184.000
8.12000 5136.000
8.16000 5248.000
8.20000 5611.000
8.24000 5811.000
8.28000 6278.000
8.32000 6491.000
8.36000 6451.000
8.40000 5896.000
8.44000 5542.000
8.48000 5503.000
8.52000 5561.000
8.56000 5662.000
8.60000 6173.000
8.64000 6671.000
8.68000 7415.000
8.72000 8724.000
8.76000 10941.000
8.80000 13806.000
8.84000 17579.000
8.88000 22044.000
8.92000 29990.000
8.96000 44696.000
9.00000 67566.000
9.04000 109846.000
9.08000 192393.600
9.12000 364535.300
9.16000 708631.900
9.20000 1100512.000
9.24000 1225430.000
9.28000 931730.100
9.32000 509938.700
9.36000 257069.200
9.40000 128744.600
9.44000 64248.000
9.48000 30242.000
9.52000 15563.000
9.56000 9522.000
9.60000 6663.000
9.64000 5249.000
9.68000 4276.000
9.72000 3887.000
9.76000 3465.000
9.80000 3360.000
9.84000 3469.000
9.88000 3828.000
9.92000 4366.000
9.96000 5395.000
10.00000 7673.000
10.04000 12115.000
10.08000 20500.000
10.12000 30320.000
10.16000 32992.000
10.20000 24974.000
10.24000 14727.000
10.28000 8720.000
10.32000 5340.000
10.36000 3571.000
10.40000 2558.000
10.44000 2121.000
10.48000 1817.000
10.52000 1754.000
10.56000 1617.000
10.60000 1494.000
10.64000 1470.000
10.68000 1490.000
10.72000 1441.000
10.76000 1368.000
10.80000 1437.000
10.84000 1353.000
10.88000 1307.000
10.92000 1324.000
10.96000 1332.000
11.00000 1349.000
11.04000 1280.000
11.08000 1254.000
11.12000 1296.000
11.16000 1283.000
11.20000 1257.000
11.24000 1247.000
11.28000 1243.000
11.32000 1227.000
11.36000 1168.000
11.40000 1172.000
11.44000 1196.000
11.48000 1302.000
11.52000 1277.000
11.56000 1310.000
11.60000 1393.000
11.64000 1455.000
11.68000 1613.000
11.72000 1929.000
11.76000 2399.000
11.80000 3287.000
11.84000 4378.000
11.88000 4972.000
11.92000 4442.000
11.96000 3333.000
12.00000 2353.000
12.04000 1767.000
12.08000 1500.000
12.12000 1354.000
12.16000 1256.000
12.20000 1205.000
12.24000 1221.000
12.28000 1081.000
12.32000 1134.000
12.36000 1113.000
12.40000 1064.000
12.44000 1121.000
12.48000 1105.000
12.52000 1130.000
12.56000 1102.000
12.60000 1101.000
12.64000 1072.000
12.68000 1104.000
12.72000 1114.000
12.76000 1115.000
12.80000 1087.000
12.84000 1070.000
12.88000 1076.000
12.92000 1035.000
12.96000 1131.000
13.00000 1079.000
13.04000 1063.000
13.08000 1073.000
13.12000 1107.000
13.16000 1085.000
13.20000 1124.000
13.24000 1117.000
13.28000 1080.000
13.32000 1145.000
13.36000 1180.000
13.40000 1245.000
13.44000 1279.000
13.48000 1263.000
13.52000 1457.000
13.56000 1578.000
13.60000 1782.000
13.64000 1916.000
13.68000 1939.000
13.72000 1766.000
13.76000 1452.000
13.80000 1328.000
13.84000 1188.000
13.88000 1129.000
13.92000 1070.000
13.96000 1068.000
14.00000 1096.000
14.04000 1102.000
14.08000 1035.000
14.12000 1096.000
14.16000 1011.000
14.20000 1060.000
14.24000 1027.000
14.28000 1051.000
14.32000 1023.000
14.36000 1102.000
14.40000 1080.000
14.44000 1081.000
14.48000 1127.000
14.52000 1076.000
14.56000 1126.000
14.60000 1090.000
14.64000 1101.000
14.68000 1109.000
14.72000 1104.000
14.76000 1040.000
14.80000 1071.000
14.84000 1054.000
14.88000 1018.000
14.92000 1100.000
14.96000 1073.000
15.00000 1099.000
15.04000 1088.000
15.08000 1120.000
15.12000 1139.000
15.16000 1108.000
15.20000 1113.000
15.24000 1108.000
15.28000 1171.000
15.32000 1100.000
15.36000 1134.000
15.40000 1092.000
15.44000 1093.000
15.48000 1161.000
15.52000 1136.000
15.56000 1137.000
15.60000 1149.000
15.64000 1144.000
15.68000 1150.000
15.72000 1104.000
15.76000 1111.000
15.80000 1102.000
15.84000 1143.000
15.88000 1133.000
15.92000 1175.000
15.96000 1166.000
16.00000 1169.000
16.04000 1154.000
16.08000 1169.000
16.12000 1144.000
16.16000 1199.000
16.20000 1183.000
16.24000 1243.000
16.28000 1106.000
16.32000 1225.000
16.36000 1193.000
16.40000 1224.000
16.44000 1180.000
16.48000 1224.000
16.52000 1179.000
16.56000 1276.000
16.60000 1245.000
16.64000 1293.000
16.68000 1281.000
16.72000 1223.000
16.76000 1223.000
16.80000 1189.000
16.84000 1217.000
16.88000 1234.000
16.92000 1297.000
16.96000 1288.000
17.00000 1265.000
17.04000 1216.000
17.08000 1259.000
17.12000 1294.000
17.16000 1266.000
17.20000 1284.000
17.24000 1309.000
17.28000 1258.000
17.32000 1382.000
17.36000 1281.000
17.40000 1326.000
17.44000 1342.000
17.48000 1341.000
17.52000 1369.000
17.56000 1418.000
17.60000 1407.000
17.64000 1479.000
17.68000 1443.000
17.72000 1398.000
17.76000 1397.000
17.80000 1457.000
17.84000 1459.000
17.88000 1428.000
17.92000 1535.000
17.96000 1519.000
18.00000 1619.000
18.04000 1557.000
18.08000 1663.000
18.12000 1827.000
18.16000 2016.000
18.20000 2455.000
18.24000 3146.000
18.28000 4439.000
18.32000 6732.000
18.36000 11045.000
18.40000 15648.000
18.44000 17902.000
18.48000 17294.000
18.52000 14185.000
18.56000 10014.000
18.60000 6155.000
18.64000 3920.000
18.68000 2751.000
18.72000 2223.000
18.76000 1874.000
18.80000 1722.000
18.84000 1679.000
18.88000 1634.000
18.92000 1572.000
18.96000 1632.000
19.00000 1589.000
19.04000 1592.000
19.08000 1541.000
19.12000 1580.000
19.16000 1574.000
19.20000 1611.000
19.24000 1715.000
19.28000 1601.000
19.32000 1614.000
19.36000 1660.000
19.40000 1689.000
19.44000 1689.000
19.48000 1674.000
19.52000 1659.000
19.56000 1676.000
19.60000 1702.000
19.64000 1742.000
19.68000 1730.000
19.72000 1720.000
19.76000 1799.000
19.80000 1811.000
19.84000 1801.000
19.88000 2023.000
19.92000 2043.000
19.96000 2159.000
20.00000 2485.000
20.04000 2749.000
20.08000 3461.000
20.12000 4487.000
20.16000 6504.000
20.20000 10010.000
20.24000 14097.000
20.28000 17160.000
20.32000 17583.000
20.36000 15442.000
20.40000 11289.000
20.44000 7490.000
20.48000 5075.000
20.52000 3512.000
20.56000 2720.000
20.60000 2373.000
20.64000 2188.000
20.68000 1967.000
20.72000 1975.000
20.76000 1979.000
20.80000 1907.000
20.84000 1913.000
20.88000 1835.000
20.92000 1887.000
20.96000 1912.000
21.00000 1904.000
21.04000 1897.000
21.08000 1914.000
21.12000 1858.000
21.16000 1914.000
21.20000 1866.000
21.24000 1862.000
21.28000 1862.000
21.32000 1891.000
21.36000 1919.000
21.40000 1866.000
21.44000 1917.000
21.48000 1890.000
21.52000 1903.000
21.56000 1955.000
21.60000 1886.000
21.64000 1924.000
21.68000 1850.000
21.72000 1916.000
21.76000 1934.000
21.80000 1950.000
21.84000 1973.000
21.88000 1923.000
21.92000 1955.000
21.96000 1942.000
22.00000 1927.000
22.04000 1970.000
22.08000 2010.000
22.12000 1969.000
22.16000 1943.000
22.20000 1955.000
22.24000 2009.000
22.28000 2039.000
22.32000 2016.000
22.36000 2028.000
22.40000 1920.000
22.44000 1953.000
22.48000 1937.000
22.52000 1944.000
22.56000 1888.000
22.60000 1995.000
22.64000 1971.000
22.68000 1986.000
22.72000 2041.000
22.76000 2008.000
22.80000 1926.000
22.84000 2000.000
22.88000 2048.000
22.92000 1952.000
22.96000 2016.000
23.00000 2022.000
23.04000 1966.000
23.08000 2113.000
23.12000 1965.000
23.16000 2016.000
23.20000 2080.000
23.24000 2021.000
23.28000 2059.000
23.32000 2084.000
23.36000 2020.000
23.40000 2083.000
23.44000 1990.000
23.48000 2001.000
23.52000 2057.000
23.56000 2035.000
23.60000 2031.000
23.64000 2061.000
23.68000 2124.000
23.72000 2013.000
23.76000 2073.000
23.80000 2136.000
23.84000 2185.000
23.88000 2145.000
23.92000 2119.000
23.96000 2170.000
24.00000 2091.000
24.04000 1936.000
24.08000 2115.000
24.12000 2095.000
24.16000 2025.000
24.20000 2070.000
24.24000 2048.000
24.28000 1999.000
24.32000 2046.000
24.36000 2066.000
24.40000 1965.000
24.44000 2077.000
24.48000 1997.000
24.52000 2015.000
24.56000 1980.000
24.60000 1982.000
24.64000 2042.000
24.68000 2031.000
24.72000 2049.000
24.76000 2083.000
24.80000 2038.000
24.84000 2056.000
24.88000 2035.000
24.92000 2053.000
24.96000 2057.000
25.00000 2098.000
25.04000 2073.000
25.08000 2217.000
25.12000 2057.000
25.16000 2070.000
25.20000 2020.000
25.24000 2147.000
25.28000 1998.000
25.32000 1962.000
25.36000 2026.000
25.40000 2086.000
25.44000 2014.000
25.48000 2004.000
25.52000 2017.000
25.56000 2005.000
25.60000 2003.000
25.64000 1883.000
25.68000 1985.000
25.72000 1985.000
25.76000 1872.000
25.80000 1976.000
25.84000 1902.000
25.88000 2060.000
25.92000 2088.000
25.96000 1941.000
26.00000 1952.000
26.04000 2047.000
26.08000 2059.000
26.12000 2077.000
26.16000 1962.000
26.20000 1996.000
26.24000 1976.000
26.28000 1974.000
26.32000 1984.000
26.36000 1969.000
26.40000 2031.000
26.44000 2103.000
26.48000 2135.000
26.52000 2259.000
26.56000 2212.000
26.60000 2207.000
26.64000 2134.000
26.68000 2258.000
26.72000 2168.000
26.76000 2170.000
26.80000 2174.000
26.84000 2131.000
26.88000 2194.000
26.92000 2264.000
26.96000 2244.000
27.00000 2160.000
27.04000 2290.000
27.08000 2445.000
27.12000 2357.000
27.16000 2510.000
27.20000 2606.000
27.24000 2743.000
27.28000 3043.000
27.32000 3190.000
27.36000 3549.000
27.40000 4050.000
27.44000 4807.000
27.48000 5957.000
27.52000 7335.000
27.56000 10136.000
27.60000 15521.000
27.64000 24952.000
27.68000 40448.000
27.72000 56397.000
27.76000 65723.000
27.80000 67444.000
27.84000 67989.000
27.88000 64683.000
27.92000 55929.000
27.96000 41555.000
28.00000 27045.000
28.04000 16030.000
28.08000 9277.000
28.12000 5832.000
28.16000 4025.000
28.20000 3327.000
28.24000 2944.000
28.28000 2870.000
28.32000 2659.000
28.36000 2598.000
28.40000 2424.000
28.44000 2426.000
28.48000 2210.000
28.52000 2130.000
28.56000 1987.000
28.60000 1946.000
28.64000 1910.000
28.68000 1942.000
28.72000 1840.000
28.76000 1858.000
28.80000 1831.000
28.84000 1869.000
28.88000 1821.000
28.92000 1789.000
28.96000 1862.000
29.00000 1753.000
29.04000 1766.000
29.08000 1852.000
29.12000 1732.000
29.16000 1701.000
29.20000 1795.000
29.24000 1776.000
29.28000 1779.000
29.32000 1758.000
29.36000 1704.000
29.40000 1695.000
29.44000 1678.000
29.48000 1687.000
29.52000 1771.000
29.56000 1715.000
29.60000 1750.000
29.64000 1744.000
29.68000 1639.000
29.72000 1731.000
29.76000 1722.000
29.80000 1730.000
29.84000 1672.000
29.88000 1729.000
29.92000 1786.000
29.96000 1723.000
30.00000 1734.000
30.04000 1712.000
30.08000 1818.000
30.12000 1736.000
30.16000 1773.000
30.20000 1790.000
30.24000 1734.000
30.28000 1906.000
30.32000 2029.000
30.36000 2168.000
30.40000 2433.000
30.44000 2895.000
30.48000 3961.000
30.52000 5207.000
30.56000 6116.000
30.60000 6678.000
30.64000 7293.000
30.68000 7510.000
30.72000 6952.000
30.76000 5705.000
30.80000 4440.000
30.84000 3365.000
30.88000 2607.000
30.92000 2121.000
30.96000 1952.000
31.00000 1771.000
31.04000 1745.000
31.08000 1680.000
31.12000 1685.000
31.16000 1735.000
31.20000 1670.000
31.24000 1606.000
31.28000 1632.000
31.32000 1668.000
31.36000 1573.000
31.40000 1624.000
31.44000 1598.000
31.48000 1609.000
31.52000 1559.000
31.56000 1591.000
31.60000 1519.000
31.64000 1519.000
31.68000 1546.000
31.72000 1559.000
31.76000 1545.000
31.80000 1447.000
31.84000 1506.000
31.88000 1491.000
31.92000 1459.000
31.96000 1460.000
32.00000 1465.000
32.04000 1476.000
32.08000 1419.000
32.12000 1467.000
32.16000 1502.000
32.20000 1493.000
32.24000 1434.000
32.28000 1464.000
32.32000 1483.000
32.36000 1479.000
32.40000 1471.000
32.44000 1388.000
32.48000 1384.000
32.52000 1427.000
32.56000 1412.000
32.60000 1401.000
32.64000 1402.000
32.68000 1384.000
32.72000 1418.000
32.76000 1395.000
32.80000 1419.000
32.84000 1378.000
32.88000 1330.000
32.92000 1396.000
32.96000 1348.000
33.00000 1398.000
33.04000 1410.000
33.08000 1391.000
33.12000 1354.000
33.16000 1342.000
33.20000 1416.000
33.24000 1340.000
33.28000 1392.000
33.32000 1329.000
33.36000 1367.000
33.40000 1383.000
33.44000 1405.000
33.48000 1434.000
33.52000 1425.000
33.56000 1537.000
33.60000 1525.000
33.64000 1483.000
33.68000 1418.000
33.72000 1383.000
33.76000 1404.000
33.80000 1338.000
33.84000 1308.000
33.88000 1342.000
33.92000 1332.000
33.96000 1365.000
34.00000 1344.000
34.04000 1411.000
34.08000 1401.000
34.12000 1334.000
34.16000 1396.000
34.20000 1368.000
34.24000 1391.000
34.28000 1476.000
34.32000 1590.000
34.36000 1633.000
34.40000 1761.000
34.44000 1805.000
34.48000 1941.000
34.52000 1973.000
34.56000 1896.000
34.60000 1797.000
34.64000 1741.000
34.68000 1567.000
34.72000 1436.000
34.76000 1395.000
34.80000 1312.000
34.84000 1294.000
34.88000 1278.000
34.92000 1164.000
34.96000 1164.000
35.00000 1196.000
35.04000 1215.000
35.08000 1139.000
35.12000 1206.000
35.16000 1169.000
35.20000 1173.000
35.24000 1210.000
35.28000 1145.000
35.32000 1199.000
35.36000 1138.000
35.40000 1201.000
35.44000 1156.000
35.48000 1205.000
35.52000 1191.000
35.56000 1271.000
35.60000 1296.000
35.64000 1382.000
35.68000 1368.000
35.72000 1323.000
35.76000 1368.000
35.80000 1358.000
35.84000 1407.000
35.88000 1354.000
35.92000 1330.000
35.96000 1327.000
36.00000 1238.000
36.04000 1302.000
36.08000 1297.000
36.12000 1339.000
36.16000 1319.000
36.20000 1336.000
36.24000 1273.000
36.28000 1332.000
36.32000 1358.000
36.36000 1421.000
36.40000 1467.000
36.44000 1440.000
36.48000 1456.000
36.52000 1439.000
36.56000 1593.000
36.60000 1549.000
36.64000 1669.000
36.68000 1710.000
36.72000 1725.000
36.76000 1934.000
36.80000 2048.000
36.84000 2302.000
36.88000 2643.000
36.92000 3271.000
36.96000 4054.000
37.00000 5460.000
37.04000 7699.000
37.08000 11517.000
37.12000 18485.000
37.16000 30015.000
37.20000 46508.000
37.24000 60853.000
37.28000 67776.000
37.32000 68934.000
37.36000 68172.000
37.40000 66633.000
37.44000 66105.000
37.48000 62992.000
37.52000 53077.000
37.56000 40725.000
37.60000 28598.000
37.64000 17972.000
37.68000 10337.000
37.72000 6196.000
37.76000 3985.000
37.80000 2811.000
37.84000 2238.000
37.88000 1905.000
37.92000 1736.000
37.96000 1613.000
38.00000 1476.000
38.04000 1433.000
38.08000 1342.000
38.12000 1311.000
38.16000 1277.000
38.20000 1226.000
38.24000 1240.000
38.28000 1128.000
38.32000 1082.000
38.36000 1110.000
38.40000 1053.000
38.44000 1077.000
38.48000 981.000
38.52000 1013.000
38.56000 1018.000
38.60000 952.000
38.64000 984.000
38.68000 906.000
38.72000 914.000
38.76000 927.000
38.80000 940.000
38.84000 882.000
38.88000 946.000
38.92000 901.000
38.96000 876.000
39.00000 911.000
39.04000 871.000
39.08000 907.000
39.12000 877.000
39.16000 883.000
39.20000 899.000
39.24000 854.000
39.28000 854.000
39.32000 857.000
39.36000 857.000
39.40000 786.000
39.44000 828.000
39.48000 846.000
39.52000 885.000
39.56000 791.000
39.60000 833.000
39.64000 878.000
39.68000 849.000
39.72000 829.000
39.76000 845.000
39.80000 860.000
39.84000 812.000
39.88000 836.000
39.92000 842.000
39.96000 769.000
40.00000 810.000
40.04000 832.000
40.08000 819.000
40.12000 835.000
40.16000 828.000
40.20000 847.000
40.24000 854.000
40.28000 846.000
40.32000 812.000
40.36000 826.000
40.40000 799.000
40.44000 824.000
40.48000 839.000
40.52000 786.000
40.56000 822.000
40.60000 866.000
40.64000 804.000
40.68000 814.000
40.72000 841.000
40.76000 834.000
40.80000 856.000
40.84000 887.000
40.88000 844.000
40.92000 846.000
40.96000 842.000
41.00000 921.000
41.04000 944.000
41.08000 940.000
41.12000 956.000
41.16000 1063.000
41.20000 1111.000
41.24000 1327.000
41.28000 1417.000
41.32000 1394.000
41.36000 1359.000
41.40000 1292.000
41.44000 1174.000
41.48000 1096.000
41.52000 1017.000
41.56000 1022.000
41.60000 1062.000
41.64000 1112.000
41.68000 1076.000
41.72000 1137.000
41.76000 1067.000
41.80000 1031.000
41.84000 987.000
41.88000 959.000
41.92000 924.000
41.96000 888.000
42.00000 882.000
42.04000 849.000
42.08000 814.000
42.12000 864.000
42.16000 771.000
42.20000 845.000
42.24000 820.000
42.28000 804.000
42.32000 769.000
42.36000 795.000
42.40000 813.000
42.44000 841.000
42.48000 878.000
42.52000 846.000
42.56000 838.000
42.60000 798.000
42.64000 803.000
42.68000 820.000
42.72000 819.000
42.76000 743.000
42.80000 776.000
42.84000 807.000
42.88000 795.000
42.92000 844.000
42.96000 778.000
43.00000 786.000
43.04000 774.000
43.08000 792.000
43.12000 712.000
43.16000 787.000
43.20000 812.000
43.24000 767.000
43.28000 815.000
43.32000 752.000
43.36000 746.000
43.40000 848.000
43.44000 821.000
43.48000 795.000
43.52000 778.000
43.56000 727.000
43.60000 829.000
43.64000 810.000
43.68000 815.000
43.72000 740.000
43.76000 837.000
43.80000 768.000
43.84000 817.000
43.88000 772.000
43.92000 766.000
43.96000 802.000
44.00000 702.000
44.04000 745.000
44.08000 760.000
44.12000 784.000
44.16000 808.000
44.20000 764.000
44.24000 749.000
44.28000 739.000
44.32000 808.000
44.36000 816.000
44.40000 780.000
44.44000 764.000
44.48000 729.000
44.52000 737.000
44.56000 735.000
44.60000 758.000
44.64000 741.000
44.68000 744.000
44.72000 784.000
44.76000 748.000
44.80000 747.000
44.84000 815.000
44.88000 723.000
44.92000 772.000
44.96000 823.000
45.00000 808.000
45.04000 773.000
45.08000 808.000
45.12000 784.000
45.16000 810.000
45.20000 826.000
45.24000 774.000
45.28000 771.000
45.32000 821.000
45.36000 779.000
45.40000 795.000
45.44000 787.000
45.48000 747.000
45.52000 722.000
45.56000 830.000
45.60000 784.000
45.64000 779.000
45.68000 800.000
45.72000 796.000
45.76000 734.000
45.80000 723.000
45.84000 785.000
45.88000 809.000
45.92000 800.000
45.96000 774.000
46.00000 819.000
46.04000 767.000
46.08000 766.000
46.12000 842.000
46.16000 740.000
46.20000 793.000
46.24000 808.000
46.28000 848.000
46.32000 819.000
46.36000 850.000
46.40000 854.000
46.44000 793.000
46.48000 832.000
46.52000 838.000
46.56000 861.000
46.60000 923.000
46.64000 963.000
46.68000 943.000
46.72000 1049.000
46.76000 1194.000
46.80000 1297.000
46.84000 1697.000
46.88000 2239.000
46.92000 3077.000
46.96000 4430.000
47.00000 5990.000
47.04000 7127.000
47.08000 7411.000
47.12000 7630.000
47.16000 7815.000
47.20000 7543.000
47.24000 7672.000
47.28000 7872.000
47.32000 8067.000
47.36000 7519.000
47.40000 6595.000
47.44000 5394.000
47.48000 4280.000
47.52000 3194.000
47.56000 2171.000
47.60000 1543.000
47.64000 1211.000
47.68000 1016.000
47.72000 904.000
47.76000 845.000
47.80000 816.000
47.84000 787.000
47.88000 811.000
47.92000 808.000
47.96000 753.000
48.00000 720.000
48.04000 787.000
48.08000 717.000
48.12000 707.000
48.16000 731.000
48.20000 753.000
48.24000 768.000
48.28000 774.000
48.32000 743.000
48.36000 694.000
48.40000 675.000
48.44000 720.000
48.48000 663.000
48.52000 700.000
48.56000 728.000
48.60000 701.000
48.64000 736.000
48.68000 701.000
48.72000 756.000
48.76000 756.000
48.80000 737.000
48.84000 752.000
48.88000 762.000
48.92000 712.000
48.96000 736.000
49.00000 695.000
49.04000 701.000
49.08000 689.000
49.12000 703.000
49.16000 692.000
49.20000 663.000
49.24000 659.000
49.28000 649.000
49.32000 668.000
49.36000 696.000
49.40000 664.000
49.44000 656.000
49.48000 690.000
49.52000 630.000
49.56000 647.000
49.60000 655.000
49.64000 664.000
49.68000 673.000
49.72000 702.000
49.76000 672.000
49.80000 701.000
49.84000 661.000
49.88000 652.000
49.92000 632.000
49.96000 639.000
50.00000 636.000
50.04000 640.000
50.08000 685.000
50.12000 649.000
50.16000 621.000
50.20000 676.000
50.24000 612.000
50.28000 624.000
50.32000 638.000
50.36000 618.000
50.40000 629.000
50.44000 621.000
50.48000 640.000
50.52000 671.000
50.56000 668.000
50.60000 657.000
50.64000 626.000
50.68000 669.000
50.72000 675.000
50.76000 633.000
50.80000 633.000
50.84000 643.000
50.88000 617.000
50.92000 641.000
50.96000 634.000
51.00000 648.000
51.04000 688.000
51.08000 663.000
51.12000 640.000
51.16000 650.000
51.20000 615.000
51.24000 608.000
51.28000 659.000
51.32000 652.000
51.36000 636.000
51.40000 650.000
51.44000 631.000
51.48000 643.000
51.52000 661.000
51.56000 650.000
51.60000 648.000
51.64000 668.000
51.68000 617.000
51.72000 705.000
51.76000 682.000
51.80000 716.000
51.84000 722.000
51.88000 708.000
51.92000 802.000
51.96000 859.000
52.00000 984.000
52.04000 1028.000
52.08000 1189.000
52.12000 1093.000
52.16000 1146.000
52.20000 1189.000
52.24000 1266.000
52.28000 1386.000
52.32000 1309.000
52.36000 1228.000
52.40000 1095.000
52.44000 1123.000
52.48000 954.000
52.52000 917.000
52.56000 754.000
52.60000 742.000
52.64000 668.000
52.68000 651.000
52.72000 658.000
52.76000 698.000
52.80000 630.000
52.84000 674.000
52.88000 583.000
52.92000 623.000
52.96000 677.000
53.00000 654.000
53.04000 671.000
53.08000 676.000
53.12000 638.000
53.16000 641.000
53.20000 617.000
53.24000 670.000
53.28000 654.000
53.32000 680.000
53.36000 650.000
53.40000 622.000
53.44000 592.000
53.48000 691.000
53.52000 660.000
53.56000 622.000
53.60000 644.000
53.64000 589.000
53.68000 651.000
53.72000 616.000
53.76000 637.000
53.80000 644.000
53.84000 614.000
53.88000 631.000
53.92000 630.000
53.96000 604.000
54.00000 663.000
54.04000 623.000
54.08000 658.000
54.12000 613.000
54.16000 599.000
54.20000 599.000
54.24000 625.000
54.28000 576.000
54.32000 630.000
54.36000 627.000
54.40000 630.000
54.44000 625.000
54.48000 636.000
54.52000 632.000
54.56000 639.000
54.60000 588.000
54.64000 614.000
54.68000 626.000
54.72000 591.000
54.76000 690.000
54.80000 629.000
54.84000 594.000
54.88000 637.000
54.92000 651.000
54.96000 633.000
55.00000 604.000
55.04000 636.000
55.08000 576.000
55.12000 654.000
55.16000 622.000
55.20000 624.000
55.24000 597.000
55.28000 621.000
55.32000 611.000
55.36000 675.000
55.40000 632.000
55.44000 648.000
55.48000 593.000
55.52000 618.000
55.56000 666.000
55.60000 609.000
55.64000 624.000
55.68000 625.000
55.72000 587.000
55.76000 664.000
55.80000 602.000
55.84000 631.000
55.88000 651.000
55.92000 673.000
55.96000 696.000
56.00000 602.000
56.04000 624.000
56.08000 652.000
56.12000 608.000
56.16000 615.000
56.20000 629.000
56.24000 617.000
56.28000 629.000
56.32000 652.000
56.36000 614.000
56.40000 619.000
56.44000 642.000
56.48000 633.000
56.52000 642.000
56.56000 628.000
56.60000 634.000
56.64000 652.000
56.68000 659.000
56.72000 661.000
56.76000 619.000
56.80000 556.000
56.84000 638.000
56.88000 596.000
56.92000 653.000
56.96000 642.000
57.00000 627.000
57.04000 684.000
57.08000 725.000
57.12000 726.000
57.16000 757.000
57.20000 745.000
57.24000 818.000
57.28000 760.000
57.32000 784.000
57.36000 752.000
57.40000 734.000
57.44000 709.000
57.48000 742.000
57.52000 674.000
57.56000 714.000
57.60000 732.000
57.64000 695.000
57.68000 715.000
57.72000 692.000
57.76000 638.000
57.80000 658.000
57.84000 690.000
57.88000 682.000
57.92000 609.000
57.96000 639.000
58.00000 667.000
58.04000 624.000
58.08000 615.000
58.12000 615.000
58.16000 644.000
58.20000 606.000
58.24000 630.000
58.28000 630.000
58.32000 648.000
58.36000 685.000
58.40000 661.000
58.44000 630.000
58.48000 638.000
58.52000 637.000
58.56000 664.000
58.60000 650.000
58.64000 641.000
58.68000 627.000
58.72000 652.000
58.76000 616.000
58.80000 674.000
58.84000 667.000
58.88000 580.000
58.92000 609.000
58.96000 586.000
59.00000 645.000
59.04000 601.000
59.08000 620.000
59.12000 590.000
59.16000 605.000
59.20000 645.000
59.24000 617.000
59.28000 650.000
59.32000 675.000
59.36000 669.000
59.40000 629.000
59.44000 610.000
59.48000 620.000
59.52000 585.000
59.56000 624.000
59.60000 643.000
59.64000 695.000
59.68000 609.000
59.72000 665.000
59.76000 633.000
59.80000 603.000
59.84000 659.000
59.88000 607.000
59.92000 612.000
59.96000 616.000
60.00000 644.000
60.04000 610.000
60.08000 639.000
60.12000 628.000
60.16000 589.000
60.20000 596.000
60.24000 637.000
60.28000 565.000
60.32000 670.000
60.36000 652.000
60.40000 614.000
60.44000 631.000
60.48000 649.000
60.52000 604.000
60.56000 608.000
60.60000 593.000
60.64000 642.000
60.68000 611.000
60.72000 629.000
60.76000 638.000
60.80000 627.000
60.84000 578.000
60.88000 629.000
60.92000 598.000
60.96000 660.000
61.00000 641.000
61.04000 624.000
61.08000 650.000
61.12000 601.000
61.16000 623.000
61.20000 579.000
61.24000 595.000
61.28000 667.000
61.32000 591.000
61.36000 607.000
61.40000 573.000
61.44000 599.000
61.48000 591.000
61.52000 622.000
61.56000 623.000
61.60000 598.000
61.64000 627.000
61.68000 610.000
61.72000 632.000
61.76000 621.000
61.80000 584.000
61.84000 624.000
61.88000 618.000
61.92000 594.000
61.96000 636.000
62.00000 588.000
62.04000 642.000
62.08000 615.000
62.12000 588.000
62.16000 647.000
62.20000 630.000
62.24000 657.000
62.28000 643.000
62.32000 650.000
62.36000 645.000
62.40000 618.000
62.44000 616.000
62.48000 631.000
62.52000 583.000
62.56000 659.000
62.60000 614.000
62.64000 626.000
62.68000 624.000
62.72000 615.000
62.76000 646.000
62.80000 616.000
62.84000 616.000
62.88000 601.000
62.92000 633.000
62.96000 622.000
63.00000 626.000
63.04000 587.000
63.08000 586.000
63.12000 609.000
63.16000 634.000
63.20000 601.000
63.24000 594.000
63.28000 615.000
63.32000 621.000
63.36000 648.000
63.40000 606.000
63.44000 619.000
63.48000 631.000
63.52000 664.000
63.56000 701.000
63.60000 695.000
63.64000 674.000
63.68000 626.000
63.72000 698.000
63.76000 688.000
63.80000 659.000
63.84000 675.000
63.88000 657.000
63.92000 669.000
63.96000 632.000
64.00000 661.000
64.04000 628.000
64.08000 637.000
64.12000 603.000
64.16000 637.000
64.20000 609.000
64.24000 632.000
64.28000 574.000
64.32000 609.000
64.36000 577.000
64.40000 631.000
64.44000 580.000
64.48000 564.000
64.52000 597.000
64.56000 572.000
64.60000 609.000
64.64000 584.000
64.68000 592.000
64.72000 592.000
64.76000 606.000
64.80000 604.000
64.84000 567.000
64.88000 580.000
64.92000 578.000
64.96000 618.000
65.00000 626.000
65.04000 632.000
65.08000 595.000
65.12000 583.000
65.16000 577.000
65.20000 550.000
65.24000 573.000
65.28000 603.000
65.32000 533.000
65.36000 565.000
65.40000 597.000
65.44000 600.000
65.48000 575.000
65.52000 558.000
65.56000 551.000
65.60000 592.000
65.64000 563.000
65.68000 562.000
65.72000 579.000
65.76000 571.000
65.80000 578.000
65.84000 529.000
65.88000 598.000
65.92000 566.000
65.96000 566.000
66.00000 578.000
66.04000 543.000
66.08000 594.000
66.12000 592.000
66.16000 604.000
66.20000 575.000
66.24000 591.000
66.28000 579.000
66.32000 568.000
66.36000 563.000
66.40000 568.000
66.44000 551.000
66.48000 622.000
66.52000 547.000
66.56000 560.000
66.60000 628.000
66.64000 560.000
66.68000 523.000
66.72000 536.000
66.76000 618.000
66.80000 542.000
66.84000 573.000
66.88000 566.000
66.92000 580.000
66.96000 582.000
67.00000 538.000
67.04000 597.000
67.08000 554.000
67.12000 563.000
67.16000 576.000
67.20000 588.000
67.24000 551.000
67.28000 564.000
67.32000 558.000
67.36000 598.000
67.40000 578.000
67.44000 568.000
67.48000 509.000
67.52000 625.000
67.56000 599.000
67.60000 604.000
67.64000 645.000
67.68000 611.000
67.72000 710.000
67.76000 767.000
67.80000 895.000
67.84000 984.000
67.88000 1113.000
67.92000 1128.000
67.96000 1202.000
68.00000 1043.000
68.04000 1087.000
68.08000 1080.000
68.12000 1042.000
68.16000 998.000
68.20000 1060.000
68.24000 1062.000
68.28000 1072.000
68.32000 1086.000
68.36000 1080.000
68.40000 1019.000
68.44000 1019.000
68.48000 877.000
68.52000 809.000
68.56000 793.000
68.60000 772.000
68.64000 718.000
68.68000 652.000
68.72000 571.000
68.76000 575.000
68.80000 611.000
68.84000 584.000
68.88000 633.000
68.92000 544.000
68.96000 550.000
69.00000 508.000
69.04000 542.000
69.08000 545.000
69.12000 563.000
69.16000 508.000
69.20000 496.000
69.24000 499.000
69.28000 502.000
69.32000 567.000
69.36000 498.000
69.40000 508.000
69.44000 537.000
69.48000 525.000
69.52000 543.000
69.56000 555.000
69.60000 549.000
69.64000 524.000
69.68000 536.000
69.72000 505.000
69.76000 482.000
69.80000 572.000
69.84000 509.000
69.88000 515.000
69.92000 512.000
