5.00000 3255.000
5.04000 3253.000
5.08000 3258.000
5.12000 3280.000
5.16000 3209.000
5.20000 3221.000
5.24000 3431.000
5.28000 3411.000
5.32000 3511.000
5.36000 3602.000
5.40000 3737.000
5.44000 3718.000
5.48000 3961.000
5.52000 3965.000
5.56000 4122.000
5.60000 4266.000
5.64000 4390.000
5.68000 4680.000
5.72000 4857.000
5.76000 4726.000
5.80000 4828.000
5.84000 4881.000
5.88000 4507.000
5.92000 4257.000
5.96000 4052.000
6.00000 3865.000
6.04000 3685.000
6.08000 3428.000
6.12000 3296.000
6.16000 3223.000
6.20000 2968.000
6.24000 2895.000
6.28000 2744.000
6.32000 2732.000
6.36000 2641.000
6.40000 2573.000
6.44000 2611.000
6.48000 2444.000
6.52000 2337.000
6.56000 2335.000
6.60000 2285.000
6.64000 2373.000
6.68000 2133.000
6.72000 2197.000
6.76000 2193.000
6.80000 2169.000
6.84000 2191.000
6.88000 2003.000
6.92000 2073.000
6.96000 2045.000
7.00000 2080.000
7.04000 2030.000
7.08000 2040.000
7.12000 1978.000
7.16000 1962.000
7.20000 1953.000
7.24000 1929.000
7.28000 1912.000
7.32000 1855.000
7.36000 1882.000
7.40000 1911.000
7.44000 1834.000
7.48000 1900.000
7.52000 1902.000
7.56000 1793.000
7.60000 1821.000
7.64000 1845.000
7.68000 1782.000
7.72000 1853.000
7.76000 1855.000
7.80000 1861.000
7.84000 1859.000
7.88000 1853.000
7.92000 1810.000
7.96000 1800.000
8.00000 1788.000
8.04000 1829.000
8.08000 1873.000
8.12000 1844.000
8.16000 1828.000
8.20000 1897.000
8.24000 1851.000
8.28000 1937.000
8.32000 2012.000
8.36000 2017.000
8.40000 2173.000
8.44000 2216.000
8.48000 2342.000
8.52000 2483.000
8.56000 2692.000
8.60000 2906.000
8.64000 2729.000
8.68000 2546.000
8.72000 2475.000
8.76000 2444.000
8.80000 2590.000
8.84000 2692.000
8.88000 2845.000
8.92000 3063.000
8.96000 3407.000
9.00000 3961.000
9.04000 4691.000
9.08000 5934.000
9.12000 7276.000
9.16000 8666.000
9.20000 11389.000
9.24000 15590.000
9.28000 23004.000
9.32000 34735.000
9.36000 55492.000
9.40000 98828.000
9.44000 187400.600
9.48000 343210.000
9.52000 482640.600
9.56000 403825.900
9.60000 237377.200
9.64000 121791.700
9.68000 64137.000
9.72000 34866.000
9.76000 19243.000
9.80000 11276.000
9.84000 7246.000
9.88000 5259.000
9.92000 4158.000
9.96000 3399.000
10.00000 2922.000
10.04000 2684.000
10.08000 2330.000
10.12000 2196.000
10.16000 2059.000
10.20000 1910.000
10.24000 1847.000
10.28000 1855.000
10.32000 1728.000
10.36000 1635.000
10.40000 1630.000
10.44000 1583.000
10.48000 1599.000
10.52000 1521.000
10.56000 1459.000
10.60000 1420.000
10.64000 1388.000
10.68000 1530.000
10.72000 1381.000
10.76000 1417.000
10.80000 1391.000
10.84000 1365.000
10.88000 1291.000
10.92000 1309.000
10.96000 1335.000
11.00000 1316.000
11.04000 1252.000
11.08000 1313.000
11.12000 1292.000
11.16000 1331.000
11.20000 1302.000
11.24000 1326.000
11.28000 1204.000
11.32000 1215.000
11.36000 1189.000
11.40000 1233.000
11.44000 1243.000
11.48000 1318.000
11.52000 1291.000
11.56000 1278.000
11.60000 1208.000
11.64000 1161.000
11.68000 1272.000
11.72000 1191.000
11.76000 1148.000
11.80000 1201.000
11.84000 1186.000
11.88000 1175.000
11.92000 1134.000
11.96000 1046.000
12.00000 1088.000
12.04000 1163.000
12.08000 1086.000
12.12000 1122.000
12.16000 1118.000
12.20000 1176.000
12.24000 1121.000
12.28000 1068.000
12.32000 1105.000
12.36000 1153.000
12.40000 1132.000
12.44000 1096.000
12.48000 1070.000
12.52000 1117.000
12.56000 1090.000
12.60000 1089.000
12.64000 1061.000
12.68000 1025.000
12.72000 1072.000
12.76000 1059.000
12.80000 1051.000
12.84000 1104.000
12.88000 1017.000
12.92000 1082.000
12.96000 1085.000
13.00000 1066.000
13.04000 1081.000
13.08000 1092.000
13.12000 1094.000
13.16000 1083.000
13.20000 1125.000
13.24000 1004.000
13.28000 1109.000
13.32000 1035.000
13.36000 1101.000
13.40000 1033.000
13.44000 986.000
13.48000 1056.000
13.52000 1060.000
13.56000 1047.000
13.60000 1126.000
13.64000 1114.000
13.68000 1058.000
13.72000 1072.000
13.76000 1049.000
13.80000 1078.000
13.84000 1018.000
13.88000 1060.000
13.92000 1056.000
13.96000 1088.000
14.00000 1010.000
14.04000 1050.000
14.08000 1062.000
14.12000 1043.000
14.16000 1124.000
14.20000 1105.000
14.24000 1088.000
14.28000 1158.000
14.32000 1094.000
14.36000 1077.000
14.40000 1106.000
14.44000 1130.000
14.48000 1102.000
14.52000 1127.000
14.56000 1103.000
14.60000 1128.000
14.64000 1180.000
14.68000 1119.000
14.72000 1180.000
14.76000 1115.000
14.80000 1117.000
14.84000 1150.000
14.88000 1109.000
14.92000 1078.000
14.96000 1165.000
15.00000 1142.000
15.04000 1140.000
15.08000 1114.000
15.12000 1103.000
15.16000 1120.000
15.20000 1116.000
15.24000 1129.000
15.28000 1152.000
15.32000 1122.000
15.36000 1119.000
15.40000 1179.000
15.44000 1162.000
15.48000 1144.000
15.52000 1123.000
15.56000 1242.000
15.60000 1115.000
15.64000 1204.000
15.68000 1226.000
15.72000 1209.000
15.76000 1144.000
15.80000 1168.000
15.84000 1146.000
15.88000 1216.000
15.92000 1137.000
15.96000 1132.000
16.00000 1165.000
16.04000 1218.000
16.08000 1191.000
16.12000 1179.000
16.16000 1257.000
16.20000 1266.000
16.24000 1221.000
16.28000 1223.000
16.32000 1211.000
16.36000 1267.000
16.40000 1196.000
16.44000 1175.000
16.48000 1293.000
16.52000 1211.000
16.56000 1244.000
16.60000 1270.000
16.64000 1237.000
16.68000 1219.000
16.72000 1272.000
16.76000 1242.000
16.80000 1280.000
16.84000 1285.000
16.88000 1253.000
16.92000 1320.000
16.96000 1350.000
17.00000 1232.000
17.04000 1256.000
17.08000 1258.000
17.12000 1301.000
17.16000 1347.000
17.20000 1323.000
17.24000 1363.000
17.28000 1346.000
17.32000 1355.000
17.36000 1348.000
17.40000 1303.000
17.44000 1346.000
17.48000 1408.000
17.52000 1389.000
17.56000 1384.000
17.60000 1410.000
17.64000 1416.000
17.68000 1404.000
17.72000 1405.000
17.76000 1408.000
17.80000 1454.000
17.84000 1391.000
17.88000 1430.000
17.92000 1347.000
17.96000 1404.000
18.00000 1475.000
18.04000 1397.000
18.08000 1396.000
18.12000 1430.000
18.16000 1457.000
18.20000 1428.000
18.24000 1461.000
18.28000 1460.000
18.32000 1449.000
18.36000 1493.000
18.40000 1505.000
18.44000 1539.000
18.48000 1515.000
18.52000 1533.000
18.56000 1557.000
18.60000 1498.000
18.64000 1582.000
18.68000 1626.000
18.72000 1526.000
18.76000 1610.000
18.80000 1665.000
18.84000 1837.000
18.88000 1766.000
18.92000 2084.000
18.96000 2379.000
19.00000 3049.000
19.04000 3709.000
19.08000 3978.000
19.12000 3486.000
19.16000 2600.000
19.20000 2140.000
19.24000 1883.000
19.28000 1765.000
19.32000 1719.000
19.36000 1648.000
19.40000 1748.000
19.44000 1678.000
19.48000 1687.000
19.52000 1679.000
19.56000 1648.000
19.60000 1654.000
19.64000 1692.000
19.68000 1673.000
19.72000 1671.000
19.76000 1693.000
19.80000 1692.000
19.84000 1669.000
19.88000 1719.000
19.92000 1688.000
19.96000 1781.000
20.00000 1706.000
20.04000 1688.000
20.08000 1653.000
20.12000 1768.000
20.16000 1773.000
20.20000 1695.000
20.24000 1732.000
20.28000 1762.000
20.32000 1794.000
20.36000 1812.000
20.40000 1768.000
20.44000 1772.000
20.48000 1924.000
20.52000 1760.000
20.56000 1843.000
20.60000 1722.000
20.64000 1814.000
20.68000 1839.000
20.72000 1742.000
20.76000 1842.000
20.80000 1830.000
20.84000 1773.000
20.88000 1852.000
20.92000 1895.000
20.96000 1831.000
21.00000 1891.000
21.04000 1859.000
21.08000 1898.000
21.12000 1882.000
21.16000 1903.000
21.20000 1827.000
21.24000 1902.000
21.28000 1906.000
21.32000 1867.000
21.36000 1927.000
21.40000 1952.000
21.44000 1918.000
21.48000 1867.000
21.52000 1913.000
21.56000 1916.000
21.60000 1963.000
21.64000 1991.000
21.68000 1905.000
21.72000 1949.000
21.76000 1929.000
21.80000 1983.000
21.84000 1950.000
21.88000 2032.000
21.92000 1944.000
21.96000 1885.000
22.00000 2059.000
22.04000 2029.000
22.08000 1973.000
22.12000 2016.000
22.16000 1944.000
22.20000 1982.000
22.24000 2018.000
22.28000 1917.000
22.32000 1989.000
22.36000 1994.000
22.40000 1991.000
22.44000 1942.000
22.48000 2038.000
22.52000 2037.000
22.56000 2060.000
22.60000 2028.000
22.64000 1998.000
22.68000 2121.000
22.72000 1979.000
22.76000 2022.000
22.80000 2073.000
22.84000 2059.000
22.88000 1971.000
22.92000 2035.000
22.96000 2076.000
23.00000 2047.000
23.04000 2054.000
23.08000 2085.000
23.12000 2061.000
23.16000 2049.000
23.20000 2043.000
23.24000 1995.000
23.28000 2058.000
23.32000 2031.000
23.36000 2067.000
23.40000 2077.000
23.44000 2067.000
23.48000 2085.000
23.52000 2076.000
23.56000 2068.000
23.60000 2069.000
23.64000 2084.000
23.68000 2015.000
23.72000 2030.000
23.76000 2109.000
23.80000 2126.000
23.84000 2114.000
23.88000 1994.000
23.92000 2102.000
23.96000 2008.000
24.00000 1958.000
24.04000 2058.000
24.08000 2027.000
24.12000 2104.000
24.16000 2054.000
24.20000 2101.000
24.24000 2111.000
24.28000 2050.000
24.32000 2105.000
24.36000 2041.000
24.40000 2025.000
24.44000 2043.000
24.48000 2016.000
24.52000 2058.000
24.56000 2123.000
24.60000 2039.000
24.64000 2045.000
24.68000 2019.000
24.72000 2109.000
24.76000 2010.000
24.80000 2072.000
24.84000 2138.000
24.88000 2088.000
24.92000 1975.000
24.96000 1987.000
25.00000 2006.000
25.04000 2033.000
25.08000 1971.000
25.12000 2058.000
25.16000 2008.000
25.20000 1965.000
25.24000 2071.000
25.28000 1990.000
25.32000 1981.000
25.36000 2026.000
25.40000 2054.000
25.44000 1936.000
25.48000 1993.000
25.52000 1977.000
25.56000 1985.000
25.60000 1915.000
25.64000 2003.000
25.68000 1932.000
25.72000 2050.000
25.76000 2017.000
25.80000 2020.000
25.84000 2033.000
25.88000 2019.000
25.92000 1946.000
25.96000 1991.000
26.00000 1973.000
26.04000 2009.000
26.08000 1947.000
26.12000 1968.000
26.16000 1988.000
26.20000 1958.000
26.24000 1918.000
26.28000 1990.000
26.32000 1928.000
26.36000 1900.000
26.40000 1965.000
26.44000 1971.000
26.48000 1986.000
26.52000 1916.000
26.56000 1931.000
26.60000 1957.000
26.64000 1917.000
26.68000 1873.000
26.72000 1940.000
26.76000 1882.000
26.80000 1977.000
26.84000 1889.000
26.88000 1916.000
26.92000 1919.000
26.96000 1820.000
27.00000 1879.000
27.04000 1975.000
27.08000 1905.000
27.12000 1902.000
27.16000 1944.000
27.20000 1924.000
27.24000 1896.000
27.28000 1861.000
27.32000 1964.000
27.36000 1854.000
27.40000 1910.000
27.44000 1904.000
27.48000 1931.000
27.52000 1966.000
27.56000 1959.000
27.60000 1868.000
27.64000 1904.000
27.68000 1919.000
27.72000 1892.000
27.76000 1849.000
27.80000 1840.000
27.84000 1931.000
27.88000 1829.000
27.92000 1964.000
27.96000 1852.000
28.00000 1893.000
28.04000 1933.000
28.08000 1848.000
28.12000 1928.000
28.16000 1925.000
28.20000 1855.000
28.24000 1946.000
28.28000 2086.000
28.32000 2005.000
28.36000 2069.000
28.40000 2262.000
28.44000 2518.000
28.48000 2808.000
28.52000 3185.000
28.56000 4168.000
28.60000 5829.000
28.64000 8578.000
28.68000 13211.000
28.72000 17715.000
28.76000 18346.000
28.80000 15098.000
28.84000 11214.000
28.88000 7173.000
28.92000 4766.000
28.96000 3527.000
29.00000 2871.000
29.04000 2448.000
29.08000 2218.000
29.12000 2128.000
29.16000 2005.000
29.20000 1931.000
29.24000 1859.000
29.28000 1950.000
29.32000 1838.000
29.36000 1923.000
29.40000 1803.000
29.44000 1840.000
29.48000 1714.000
29.52000 1760.000
29.56000 1729.000
29.60000 1790.000
29.64000 1752.000
29.68000 1775.000
29.72000 1722.000
29.76000 1783.000
29.80000 1712.000
29.84000 1691.000
29.88000 1713.000
29.92000 1753.000
29.96000 1712.000
30.00000 1643.000
30.04000 1727.000
30.08000 1686.000
30.12000 1636.000
30.16000 1702.000
30.20000 1714.000
30.24000 1666.000
30.28000 1703.000
30.32000 1677.000
30.36000 1611.000
30.40000 1692.000
30.44000 1665.000
30.48000 1570.000
30.52000 1587.000
30.56000 1619.000
30.60000 1644.000
30.64000 1672.000
30.68000 1639.000
30.72000 1569.000
30.76000 1575.000
30.80000 1577.000
30.84000 1587.000
30.88000 1642.000
30.92000 1570.000
30.96000 1597.000
31.00000 1597.000
31.04000 1625.000
31.08000 1603.000
31.12000 1529.000
31.16000 1519.000
31.20000 1652.000
31.24000 1588.000
31.28000 1603.000
31.32000 1526.000
31.36000 1489.000
31.40000 1520.000
31.44000 1552.000
31.48000 1518.000
31.52000 1505.000
31.56000 1565.000
31.60000 1561.000
31.64000 1491.000
31.68000 1503.000
31.72000 1538.000
31.76000 1458.000
31.80000 1495.000
31.84000 1500.000
31.88000 1494.000
31.92000 1431.000
31.96000 1499.000
32.00000 1419.000
32.04000 1468.000
32.08000 1467.000
32.12000 1446.000
32.16000 1479.000
32.20000 1464.000
32.24000 1430.000
32.28000 1419.000
32.32000 1458.000
32.36000 1464.000
32.40000 1463.000
32.44000 1395.000
32.48000 1402.000
32.52000 1492.000
32.56000 1460.000
32.60000 1408.000
32.64000 1471.000
32.68000 1397.000
32.72000 1427.000
32.76000 1330.000
32.80000 1443.000
32.84000 1331.000
32.88000 1359.000
32.92000 1328.000
32.96000 1471.000
33.00000 1342.000
33.04000 1322.000
33.08000 1310.000
33.12000 1299.000
33.16000 1404.000
33.20000 1345.000
33.24000 1321.000
33.28000 1339.000
33.32000 1328.000
33.36000 1325.000
33.40000 1345.000
33.44000 1231.000
33.48000 1270.000
33.52000 1234.000
33.56000 1295.000
33.60000 1260.000
33.64000 1232.000
33.68000 1290.000
33.72000 1218.000
33.76000 1222.000
33.80000 1302.000
33.84000 1270.000
33.88000 1250.000
33.92000 1236.000
33.96000 1312.000
34.00000 1332.000
34.04000 1232.000
34.08000 1251.000
34.12000 1253.000
34.16000 1228.000
34.20000 1249.000
34.24000 1260.000
34.28000 1248.000
34.32000 1216.000
34.36000 1217.000
34.40000 1216.000
34.44000 1244.000
34.48000 1225.000
34.52000 1164.000
34.56000 1177.000
34.60000 1132.000
34.64000 1159.000
34.68000 1196.000
34.72000 1194.000
34.76000 1184.000
34.80000 1157.000
34.84000 1171.000
34.88000 1119.000
34.92000 1196.000
34.96000 1046.000
35.00000 1183.000
35.04000 1141.000
35.08000 1057.000
35.12000 1091.000
35.16000 1125.000
35.20000 1126.000
35.24000 1111.000
35.28000 1085.000
35.32000 1100.000
35.36000 1126.000
35.40000 1120.000
35.44000 1031.000
35.48000 1096.000
35.52000 1119.000
35.56000 1057.000
35.60000 1085.000
35.64000 1056.000
35.68000 1065.000
35.72000 1045.000
35.76000 1037.000
35.80000 1152.000
35.84000 1039.000
35.88000 1040.000
35.92000 1030.000
35.96000 1044.000
36.00000 1036.000
36.04000 1051.000
36.08000 1044.000
36.12000 940.000
36.16000 1004.000
36.20000 1022.000
36.24000 981.000
36.28000 953.000
36.32000 1034.000
36.36000 1015.000
36.40000 1006.000
36.44000 1035.000
36.48000 1039.000
36.52000 1044.000
36.56000 987.000
36.60000 1040.000
36.64000 982.000
36.68000 976.000
36.72000 988.000
36.76000 990.000
36.80000 959.000
36.84000 959.000
36.88000 957.000
36.92000 959.000
36.96000 1005.000
37.00000 977.000
37.04000 1027.000
37.08000 984.000
37.12000 958.000
37.16000 981.000
37.20000 937.000
37.24000 957.000
37.28000 961.000
37.32000 907.000
37.36000 963.000
37.40000 923.000
37.44000 919.000
37.48000 902.000
37.52000 909.000
37.56000 927.000
37.60000 971.000
37.64000 988.000
37.68000 925.000
37.72000 948.000
37.76000 918.000
37.80000 929.000
37.84000 929.000
37.88000 1003.000
37.92000 948.000
37.96000 958.000
38.00000 1012.000
38.04000 989.000
38.08000 1031.000
38.12000 1068.000
38.16000 1100.000
38.20000 1072.000
38.24000 1130.000
38.28000 1267.000
38.32000 1433.000
38.36000 1687.000
38.40000 2073.000
38.44000 2813.000
38.48000 3847.000
38.52000 5808.000
38.56000 9088.000
38.60000 12267.000
38.64000 13605.000
38.68000 12182.000
38.72000 10203.000
38.76000 7524.000
38.80000 4978.000
38.84000 3249.000
38.88000 2287.000
38.92000 1822.000
38.96000 1503.000
39.00000 1243.000
39.04000 1142.000
39.08000 1070.000
39.12000 1094.000
39.16000 920.000
39.20000 976.000
39.24000 958.000
39.28000 932.000
39.32000 965.000
39.36000 924.000
39.40000 893.000
39.44000 889.000
39.48000 937.000
39.52000 869.000
39.56000 881.000
39.60000 851.000
39.64000 881.000
39.68000 884.000
39.72000 863.000
39.76000 856.000
39.80000 852.000
39.84000 861.000
39.88000 878.000
39.92000 862.000
39.96000 824.000
40.00000 848.000
40.04000 836.000
40.08000 827.000
40.12000 808.000
40.16000 826.000
40.20000 816.000
40.24000 842.000
40.28000 817.000
40.32000 827.000
40.36000 838.000
40.40000 857.000
40.44000 815.000
40.48000 786.000
40.52000 830.000
40.56000 840.000
40.60000 840.000
40.64000 841.000
40.68000 828.000
40.72000 801.000
40.76000 814.000
40.80000 847.000
40.84000 881.000
40.88000 812.000
40.92000 835.000
40.96000 809.000
41.00000 822.000
41.04000 826.000
41.08000 837.000
41.12000 796.000
41.16000 857.000
41.20000 860.000
41.24000 806.000
41.28000 816.000
41.32000 791.000
41.36000 858.000
41.40000 813.000
41.44000 775.000
41.48000 839.000
41.52000 801.000
41.56000 818.000
41.60000 823.000
41.64000 837.000
41.68000 805.000
41.72000 810.000
41.76000 794.000
41.80000 805.000
41.84000 812.000
41.88000 785.000
41.92000 770.000
41.96000 724.000
42.00000 819.000
42.04000 815.000
42.08000 800.000
42.12000 796.000
42.16000 836.000
42.20000 815.000
42.24000 822.000
42.28000 768.000
42.32000 749.000
42.36000 826.000
42.40000 792.000
42.44000 789.000
42.48000 806.000
42.52000 798.000
42.56000 776.000
42.60000 832.000
42.64000 826.000
42.68000 798.000
42.72000 770.000
42.76000 839.000
42.80000 776.000
42.84000 791.000
42.88000 775.000
42.92000 727.000
42.96000 753.000
43.00000 736.000
43.04000 779.000
43.08000 783.000
43.12000 807.000
43.16000 796.000
43.20000 740.000
43.24000 794.000
43.28000 809.000
43.32000 758.000
43.36000 794.000
43.40000 770.000
43.44000 724.000
43.48000 762.000
43.52000 825.000
43.56000 832.000
43.60000 784.000
43.64000 784.000
43.68000 725.000
43.72000 776.000
43.76000 736.000
43.80000 814.000
43.84000 801.000
43.88000 802.000
43.92000 729.000
43.96000 698.000
44.00000 788.000
44.04000 767.000
44.08000 791.000
44.12000 742.000
44.16000 771.000
44.20000 770.000
44.24000 781.000
44.28000 781.000
44.32000 789.000
44.36000 805.000
44.40000 775.000
44.44000 766.000
44.48000 753.000
44.52000 798.000
44.56000 783.000
44.60000 736.000
44.64000 790.000
44.68000 724.000
44.72000 737.000
44.76000 765.000
44.80000 810.000
44.84000 785.000
44.88000 735.000
44.92000 735.000
44.96000 809.000
45.00000 755.000
45.04000 746.000
45.08000 732.000
45.12000 752.000
45.16000 727.000
45.20000 763.000
45.24000 751.000
45.28000 762.000
45.32000 750.000
45.36000 715.000
45.40000 761.000
45.44000 732.000
45.48000 769.000
45.52000 707.000
45.56000 739.000
45.60000 737.000
45.64000 683.000
45.68000 720.000
45.72000 701.000
45.76000 785.000
45.80000 742.000
45.84000 726.000
45.88000 788.000
45.92000 776.000
45.96000 776.000
46.00000 771.000
46.04000 743.000
46.08000 726.000
46.12000 668.000
46.16000 728.000
46.20000 724.000
46.24000 721.000
46.28000 703.000
46.32000 705.000
46.36000 741.000
46.40000 713.000
46.44000 746.000
46.48000 683.000
46.52000 744.000
46.56000 712.000
46.60000 768.000
46.64000 722.000
46.68000 723.000
46.72000 729.000
46.76000 733.000
46.80000 762.000
46.84000 754.000
46.88000 710.000
46.92000 725.000
46.96000 722.000
47.00000 718.000
47.04000 731.000
47.08000 731.000
47.12000 720.000
47.16000 725.000
47.20000 775.000
47.24000 723.000
47.28000 744.000
47.32000 682.000
47.36000 678.000
47.40000 745.000
47.44000 703.000
47.48000 716.000
47.52000 724.000
47.56000 742.000
47.60000 750.000
47.64000 769.000
47.68000 737.000
47.72000 732.000
47.76000 721.000
47.80000 722.000
47.84000 752.000
47.88000 703.000
47.92000 721.000
47.96000 677.000
48.00000 759.000
48.04000 762.000
48.08000 719.000
48.12000 736.000
48.16000 694.000
48.20000 752.000
48.24000 726.000
48.28000 809.000
48.32000 789.000
48.36000 807.000
48.40000 769.000
48.44000 809.000
48.48000 828.000
48.52000 941.000
48.56000 971.000
48.60000 978.000
48.64000 1324.000
48.68000 1593.000
48.72000 2132.000
48.76000 3015.000
48.80000 3627.000
48.84000 3900.000
48.88000 3448.000
48.92000 3123.000
48.96000 2569.000
49.00000 2183.000
49.04000 1598.000
49.08000 1303.000
49.12000 1061.000
49.16000 899.000
49.20000 802.000
49.24000 795.000
49.28000 793.000
49.32000 717.000
49.36000 740.000
49.40000 693.000
49.44000 727.000
49.48000 762.000
49.52000 702.000
49.56000 698.000
49.60000 737.000
49.64000 693.000
49.68000 699.000
49.72000 712.000
49.76000 693.000
49.80000 682.000
49.84000 681.000
49.88000 663.000
49.92000 693.000
49.96000 637.000
50.00000 658.000
50.04000 688.000
50.08000 603.000
50.12000 660.000
50.16000 611.000
50.20000 622.000
50.24000 634.000
50.28000 666.000
50.32000 619.000
50.36000 666.000
50.40000 682.000
50.44000 667.000
50.48000 695.000
50.52000 660.000
50.56000 673.000
50.60000 650.000
50.64000 649.000
50.68000 642.000
50.72000 636.000
50.76000 608.000
50.80000 666.000
50.84000 663.000
50.88000 620.000
50.92000 658.000
50.96000 657.000
51.00000 648.000
51.04000 622.000
51.08000 628.000
51.12000 659.000
51.16000 649.000
51.20000 618.000
51.24000 637.000
51.28000 643.000
51.32000 627.000
51.36000 618.000
51.40000 655.000
51.44000 657.000
51.48000 696.000
51.52000 655.000
51.56000 669.000
51.60000 661.000
51.64000 658.000
51.68000 603.000
51.72000 643.000
51.76000 662.000
51.80000 619.000
51.84000 670.000
51.88000 694.000
51.92000 675.000
51.96000 652.000
52.00000 672.000
52.04000 676.000
52.08000 655.000
52.12000 637.000
52.16000 647.000
52.20000 627.000
52.24000 590.000
52.28000 651.000
52.32000 656.000
52.36000 686.000
52.40000 634.000
52.44000 631.000
52.48000 623.000
52.52000 618.000
52.56000 624.000
52.60000 654.000
52.64000 635.000
52.68000 672.000
52.72000 618.000
52.76000 650.000
52.80000 658.000
52.84000 668.000
52.88000 623.000
52.92000 648.000
52.96000 600.000
53.00000 650.000
53.04000 637.000
53.08000 648.000
53.12000 623.000
53.16000 651.000
53.20000 625.000
53.24000 611.000
53.28000 601.000
53.32000 697.000
53.36000 647.000
53.40000 624.000
53.44000 614.000
53.48000 610.000
53.52000 595.000
53.56000 648.000
53.60000 649.000
53.64000 615.000
53.68000 643.000
53.72000 645.000
53.76000 626.000
53.80000 655.000
53.84000 619.000
53.88000 637.000
53.92000 634.000
53.96000 631.000
54.00000 647.000
54.04000 637.000
54.08000 637.000
54.12000 578.000
54.16000 668.000
54.20000 662.000
54.24000 667.000
54.28000 597.000
54.32000 663.000
54.36000 629.000
54.40000 630.000
54.44000 632.000
54.48000 639.000
54.52000 651.000
54.56000 631.000
54.60000 558.000
54.64000 599.000
54.68000 596.000
54.72000 639.000
54.76000 665.000
54.80000 621.000
54.84000 591.000
54.88000 600.000
54.92000 629.000
54.96000 614.000
55.00000 637.000
55.04000 596.000
55.08000 645.000
55.12000 646.000
55.16000 617.000
55.20000 655.000
55.24000 611.000
55.28000 623.000
55.32000 618.000
55.36000 593.000
55.40000 620.000
55.44000 643.000
55.48000 626.000
55.52000 616.000
55.56000 634.000
55.60000 657.000
55.64000 628.000
55.68000 614.000
55.72000 604.000
55.76000 638.000
55.80000 644.000
55.84000 650.000
55.88000 638.000
55.92000 628.000
55.96000 657.000
56.00000 648.000
56.04000 668.000
56.08000 619.000
56.12000 632.000
56.16000 652.000
56.20000 623.000
56.24000 613.000
56.28000 622.000
56.32000 664.000
56.36000 615.000
56.40000 603.000
56.44000 657.000
56.48000 664.000
56.52000 662.000
56.56000 696.000
56.60000 598.000
56.64000 614.000
56.68000 654.000
56.72000 638.000
56.76000 621.000
56.80000 657.000
56.84000 627.000
56.88000 601.000
56.92000 627.000
56.96000 679.000
57.00000 598.000
57.04000 674.000
57.08000 632.000
57.12000 638.000
57.16000 684.000
57.20000 661.000
57.24000 634.000
57.28000 608.000
57.32000 592.000
57.36000 613.000
57.40000 651.000
57.44000 638.000
57.48000 616.000
57.52000 627.000
57.56000 618.000
57.60000 636.000
57.64000 636.000
57.68000 619.000
57.72000 637.000
57.76000 669.000
57.80000 620.000
57.84000 612.000
57.88000 637.000
57.92000 637.000
57.96000 603.000
58.00000 624.000
58.04000 621.000
58.08000 652.000
58.12000 619.000
58.16000 646.000
58.20000 627.000
58.24000 620.000
58.28000 617.000
58.32000 671.000
58.36000 646.000
58.40000 622.000
58.44000 618.000
58.48000 642.000
58.52000 603.000
58.56000 592.000
58.60000 652.000
58.64000 599.000
58.68000 644.000
58.72000 623.000
58.76000 637.000
58.80000 637.000
58.84000 606.000
58.88000 626.000
58.92000 617.000
58.96000 615.000
59.00000 689.000
59.04000 654.000
59.08000 616.000
59.12000 640.000
59.16000 585.000
59.20000 628.000
59.24000 620.000
59.28000 662.000
59.32000 643.000
59.36000 655.000
59.40000 637.000
59.44000 657.000
59.48000 665.000
59.52000 650.000
59.56000 641.000
59.60000 599.000
59.64000 588.000
59.68000 609.000
59.72000 626.000
59.76000 602.000
59.80000 655.000
59.84000 638.000
59.88000 640.000
59.92000 661.000
59.96000 649.000
60.00000 613.000
60.04000 617.000
60.08000 651.000
60.12000 600.000
60.16000 614.000
60.20000 630.000
60.24000 648.000
60.28000 639.000
60.32000 671.000
60.36000 655.000
60.40000 640.000
60.44000 587.000
60.48000 628.000
60.52000 637.000
60.56000 598.000
60.60000 615.000
60.64000 637.000
60.68000 622.000
60.72000 656.000
60.76000 634.000
60.80000 589.000
60.84000 606.000
60.88000 676.000
60.92000 632.000
60.96000 636.000
61.00000 621.000
61.04000 672.000
61.08000 610.000
61.12000 645.000
61.16000 642.000
61.20000 648.000
61.24000 623.000
61.28000 628.000
61.32000 575.000
61.36000 644.000
61.40000 578.000
61.44000 633.000
61.48000 642.000
61.52000 622.000
61.56000 584.000
61.60000 626.000
61.64000 670.000
61.68000 634.000
61.72000 603.000
61.76000 610.000
61.80000 638.000
61.84000 677.000
61.88000 637.000
61.92000 644.000
61.96000 659.000
62.00000 637.000
62.04000 612.000
62.08000 655.000
62.12000 618.000
62.16000 613.000
62.20000 600.000
62.24000 591.000
62.28000 561.000
62.32000 575.000
62.36000 634.000
62.40000 573.000
62.44000 611.000
62.48000 561.000
62.52000 628.000
62.56000 612.000
62.60000 685.000
62.64000 598.000
62.68000 628.000
62.72000 605.000
62.76000 602.000
62.80000 570.000
62.84000 666.000
62.88000 621.000
62.92000 628.000
62.96000 563.000
63.00000 641.000
63.04000 633.000
63.08000 587.000
63.12000 575.000
63.16000 612.000
63.20000 577.000
63.24000 584.000
63.28000 615.000
63.32000 542.000
63.36000 587.000
63.40000 639.000
63.44000 590.000
63.48000 578.000
63.52000 604.000
63.56000 620.000
63.60000 600.000
63.64000 607.000
63.68000 646.000
63.72000 631.000
63.76000 606.000
63.80000 605.000
63.84000 614.000
63.88000 588.000
63.92000 607.000
63.96000 587.000
64.00000 562.000
64.04000 576.000
64.08000 607.000
64.12000 640.000
64.16000 614.000
64.20000 624.000
64.24000 612.000
64.28000 598.000
64.32000 614.000
64.36000 628.000
64.40000 587.000
64.44000 575.000
64.48000 578.000
64.52000 605.000
64.56000 565.000
64.60000 591.000
64.64000 564.000
64.68000 571.000
64.72000 606.000
64.76000 558.000
64.80000 561.000
64.84000 633.000
64.88000 557.000
64.92000 556.000
64.96000 587.000
65.00000 630.000
65.04000 600.000
65.08000 571.000
65.12000 560.000
65.16000 583.000
65.20000 580.000
65.24000 609.000
65.28000 567.000
65.32000 592.000
65.36000 582.000
65.40000 540.000
65.44000 583.000
65.48000 597.000
65.52000 561.000
65.56000 531.000
65.60000 600.000
65.64000 622.000
65.68000 581.000
65.72000 565.000
65.76000 575.000
65.80000 567.000
65.84000 585.000
65.88000 558.000
65.92000 615.000
65.96000 588.000
66.00000 573.000
66.04000 630.000
66.08000 582.000
66.12000 540.000
66.16000 569.000
66.20000 527.000
66.24000 584.000
66.28000 552.000
66.32000 581.000
66.36000 578.000
66.40000 561.000
66.44000 598.000
66.48000 568.000
66.52000 555.000
66.56000 544.000
66.60000 566.000
66.64000 576.000
66.68000 548.000
66.72000 582.000
66.76000 545.000
66.80000 553.000
66.84000 497.000
66.88000 589.000
66.92000 559.000
66.96000 576.000
67.00000 568.000
67.04000 540.000
67.08000 568.000
67.12000 556.000
67.16000 610.000
67.20000 546.000
67.24000 593.000
67.28000 550.000
67.32000 604.000
67.36000 573.000
67.40000 608.000
67.44000 576.000
67.48000 573.000
67.52000 543.000
67.56000 516.000
67.60000 572.000
67.64000 566.000
67.68000 545.000
67.72000 549.000
67.76000 574.000
67.80000 565.000
67.84000 552.000
67.88000 556.000
67.92000 560.000
67.96000 566.000
68.00000 540.000
68.04000 566.000
68.08000 539.000
68.12000 513.000
68.16000 522.000
68.20000 527.000
68.24000 530.000
68.28000 580.000
68.32000 552.000
68.36000 537.000
68.40000 528.000
68.44000 556.000
68.48000 524.000
68.52000 581.000
68.56000 504.000
68.60000 518.000
68.64000 520.000
68.68000 573.000
68.72000 526.000
68.76000 493.000
68.80000 531.000
68.84000 566.000
68.88000 498.000
68.92000 496.000
68.96000 551.000
69.00000 569.000
69.04000 563.000
69.08000 516.000
69.12000 536.000
69.16000 551.000
69.20000 559.000
69.24000 537.000
69.28000 529.000
69.32000 545.000
69.36000 543.000
69.40000 536.000
69.44000 534.000
69.48000 464.000
69.52000 521.000
69.56000 527.000
69.60000 527.000
69.64000 520.000
69.68000 541.000
69.72000 550.000
69.76000 526.000
69.80000 512.000
69.84000 498.000
69.88000 497.000
69.92000 537.000
