5.00000 234.000
5.02000 232.000
5.04000 263.000
5.06000 234.000
5.08000 219.000
5.10000 247.000
5.12000 235.000
5.14000 237.000
5.16000 242.000
5.18000 210.000
5.20000 209.000
5.22000 231.000
5.24000 215.000
5.26000 258.000
5.28000 240.000
5.30000 235.000
5.32000 186.000
5.34000 227.000
5.36000 216.000
5.38000 218.000
5.40000 208.000
5.42000 238.000
5.44000 213.000
5.46000 238.000
5.48000 202.000
5.50000 220.000
5.52000 201.000
5.54000 200.000
5.56000 238.000
5.58000 221.000
5.60000 219.000
5.62000 176.000
5.64000 212.000
5.66000 200.000
5.68000 210.000
5.70000 219.000
5.72000 184.000
5.74000 211.000
5.76000 209.000
5.78000 213.000
5.80000 189.000
5.82000 207.000
5.84000 218.000
5.86000 219.000
5.88000 221.000
5.90000 220.000
5.92000 203.000
5.94000 238.000
5.96000 238.000
5.98000 209.000
6.00000 209.000
6.02000 218.000
6.04000 207.000
6.06000 236.000
6.08000 216.000
6.10000 174.000
6.12000 198.000
6.14000 203.000
6.16000 205.000
6.18000 189.000
6.20000 187.000
6.22000 210.000
6.24000 163.000
6.26000 184.000
6.28000 200.000
6.30000 193.000
6.32000 213.000
6.34000 198.000
6.36000 202.000
6.38000 184.000
6.40000 186.000
6.42000 194.000
6.44000 181.000
6.46000 190.000
6.48000 187.000
6.50000 173.000
6.52000 184.000
6.54000 159.000
6.56000 195.000
6.58000 199.000
6.60000 171.000
6.62000 160.000
6.64000 185.000
6.66000 161.000
6.68000 173.000
6.70000 164.000
6.72000 152.000
6.74000 169.000
6.76000 177.000
6.78000 210.000
6.80000 158.000
6.82000 169.000
6.84000 175.000
6.86000 198.000
6.88000 189.000
6.90000 165.000
6.92000 173.000
6.94000 198.000
6.96000 172.000
6.98000 178.000
7.00000 168.000
7.02000 161.000
7.04000 164.000
7.06000 155.000
7.08000 159.000
7.10000 163.000
7.12000 151.000
7.14000 176.000
7.16000 172.000
7.18000 173.000
7.20000 179.000
7.22000 172.000
7.24000 176.000
7.26000 177.000
7.28000 177.000
7.30000 164.000
7.32000 161.000
7.34000 148.000
7.36000 167.000
7.38000 177.000
7.40000 181.000
7.42000 177.000
7.44000 162.000
7.46000 174.000
7.48000 167.000
7.50000 157.000
7.52000 143.000
7.54000 132.000
7.56000 161.000
7.58000 163.000
7.60000 151.000
7.62000 172.000
7.64000 143.000
7.66000 147.000
7.68000 164.000
7.70000 163.000
7.72000 117.000
7.74000 161.000
7.76000 142.000
7.78000 140.000
7.80000 149.000
7.82000 150.000
7.84000 167.000
7.86000 149.000
7.88000 147.000
7.90000 157.000
7.92000 138.000
7.94000 159.000
7.96000 162.000
7.98000 147.000
8.00000 128.000
8.02000 154.000
8.04000 150.000
8.06000 152.000
8.08000 163.000
8.10000 158.000
8.12000 139.000
8.14000 138.000
8.16000 154.000
8.18000 146.000
8.20000 151.000
8.22000 148.000
8.24000 140.000
8.26000 144.000
8.28000 129.000
8.30000 164.000
8.32000 159.000
8.34000 154.000
8.36000 158.000
8.38000 152.000
8.40000 163.000
8.42000 147.000
8.44000 156.000
8.46000 153.000
8.48000 131.000
8.50000 131.000
8.52000 154.000
8.54000 162.000
8.56000 152.000
8.58000 148.000
8.60000 139.000
8.62000 151.000
8.64000 147.000
8.66000 143.000
8.68000 139.000
8.70000 171.000
8.72000 157.000
8.74000 161.000
8.76000 155.000
8.78000 164.000
8.80000 156.000
8.82000 190.000
8.84000 148.000
8.86000 185.000
8.88000 184.000
8.90000 194.000
8.92000 181.000
8.94000 176.000
8.96000 151.000
8.98000 171.000
9.00000 155.000
9.02000 157.000
9.04000 154.000
9.06000 184.000
9.08000 161.000
9.10000 155.000
9.12000 163.000
9.14000 148.000
9.16000 149.000
9.18000 140.000
9.20000 156.000
9.22000 127.000
9.24000 123.000
9.26000 130.000
9.28000 138.000
9.30000 138.000
9.32000 130.000
9.34000 119.000
9.36000 152.000
9.38000 122.000
9.40000 151.000
9.42000 125.000
9.44000 132.000
9.46000 135.000
9.48000 144.000
9.50000 113.000
9.52000 131.000
9.54000 134.000
9.56000 134.000
9.58000 134.000
9.60000 121.000
9.62000 109.000
9.64000 133.000
9.66000 123.000
9.68000 120.000
9.70000 127.000
9.72000 120.000
9.74000 116.000
9.76000 100.000
9.78000 111.000
9.80000 110.000
9.82000 108.000
9.84000 127.000
9.86000 128.000
9.88000 108.000
9.90000 113.000
9.92000 132.000
9.94000 111.000
9.96000 119.000
9.98000 128.000
10.00000 133.000
10.02000 97.000
10.04000 119.000
10.06000 129.000
10.08000 139.000
10.10000 136.000
10.12000 135.000
10.14000 128.000
10.16000 116.000
10.18000 108.000
10.20000 110.000
10.22000 112.000
10.24000 113.000
10.26000 120.000
10.28000 113.000
10.30000 131.000
10.32000 105.000
10.34000 105.000
10.36000 109.000
10.38000 125.000
10.40000 114.000
10.42000 119.000
10.44000 117.000
10.46000 143.000
10.48000 115.000
10.50000 92.000
10.52000 99.000
10.54000 98.000
10.56000 94.000
10.58000 120.000
10.60000 130.000
10.62000 112.000
10.64000 98.000
10.66000 119.000
10.68000 137.000
10.70000 118.000
10.72000 102.000
10.74000 115.000
10.76000 114.000
10.78000 113.000
10.80000 95.000
10.82000 106.000
10.84000 122.000
10.86000 117.000
10.88000 109.000
10.90000 107.000
10.92000 121.000
10.94000 104.000
10.96000 124.000
10.98000 122.000
11.00000 98.000
11.02000 115.000
11.04000 117.000
11.06000 118.000
11.08000 85.000
11.10000 115.000
11.12000 122.000
11.14000 111.000
11.16000 117.000
11.18000 95.000
11.20000 133.000
11.22000 127.000
11.24000 108.000
11.26000 142.000
11.28000 110.000
11.30000 125.000
11.32000 115.000
11.34000 122.000
11.36000 96.000
11.38000 100.000
11.40000 121.000
11.42000 118.000
11.44000 114.000
11.46000 94.000
11.48000 113.000
11.50000 119.000
11.52000 92.000
11.54000 116.000
11.56000 108.000
11.58000 126.000
11.60000 94.000
11.62000 116.000
11.64000 113.000
11.66000 114.000
11.68000 109.000
11.70000 116.000
11.72000 98.000
11.74000 104.000
11.76000 106.000
11.78000 111.000
11.80000 117.000
11.82000 111.000
11.84000 147.000
11.86000 106.000
11.88000 122.000
11.90000 105.000
11.92000 106.000
11.94000 105.000
11.96000 125.000
11.98000 104.000
12.00000 101.000
12.02000 113.000
12.04000 104.000
12.06000 102.000
12.08000 104.000
12.10000 118.000
12.12000 127.000
12.14000 126.000
12.16000 131.000
12.18000 119.000
12.20000 112.000
12.22000 129.000
12.24000 106.000
12.26000 108.000
12.28000 112.000
12.30000 129.000
12.32000 119.000
12.34000 125.000
12.36000 129.000
12.38000 111.000
12.40000 110.000
12.42000 122.000
12.44000 117.000
12.46000 115.000
12.48000 94.000
12.50000 111.000
12.52000 128.000
12.54000 144.000
12.56000 119.000
12.58000 127.000
12.60000 111.000
12.62000 117.000
12.64000 125.000
12.66000 151.000
12.68000 115.000
12.70000 142.000
12.72000 162.000
12.74000 124.000
12.76000 150.000
12.78000 143.000
12.80000 165.000
12.82000 169.000
12.84000 166.000
12.86000 196.000
12.88000 196.000
12.90000 164.000
12.92000 168.000
12.94000 146.000
12.96000 128.000
12.98000 154.000
13.00000 107.000
13.02000 111.000
13.04000 116.000
13.06000 127.000
13.08000 104.000
13.10000 120.000
13.12000 88.000
13.14000 101.000
13.16000 100.000
13.18000 104.000
13.20000 116.000
13.22000 98.000
13.24000 111.000
13.26000 107.000
13.28000 90.000
13.30000 113.000
13.32000 82.000
13.34000 95.000
13.36000 107.000
13.38000 87.000
13.40000 91.000
13.42000 97.000
13.44000 105.000
13.46000 95.000
13.48000 117.000
13.50000 110.000
13.52000 111.000
13.54000 103.000
13.56000 108.000
13.58000 105.000
13.60000 97.000
13.62000 107.000
13.64000 115.000
13.66000 100.000
13.68000 112.000
13.70000 124.000
13.72000 97.000
13.74000 92.000
13.76000 107.000
13.78000 111.000
13.80000 116.000
13.82000 102.000
13.84000 121.000
13.86000 114.000
13.88000 115.000
13.90000 126.000
13.92000 102.000
13.94000 98.000
13.96000 99.000
13.98000 104.000
14.00000 104.000
14.02000 94.000
14.04000 103.000
14.06000 84.000
14.08000 92.000
14.10000 92.000
14.12000 94.000
14.14000 87.000
14.16000 112.000
14.18000 100.000
14.20000 100.000
14.22000 86.000
14.24000 76.000
14.26000 81.000
14.28000 94.000
14.30000 100.000
14.32000 78.000
14.34000 100.000
14.36000 102.000
14.38000 96.000
14.40000 94.000
14.42000 105.000
14.44000 100.000
14.46000 88.000
14.48000 97.000
14.50000 112.000
14.52000 69.000
14.54000 86.000
14.56000 94.000
14.58000 89.000
14.60000 95.000
14.62000 97.000
14.64000 98.000
14.66000 115.000
14.68000 92.000
14.70000 100.000
14.72000 92.000
14.74000 113.000
14.76000 102.000
14.78000 83.000
14.80000 100.000
14.82000 90.000
14.84000 86.000
14.86000 81.000
14.88000 101.000
14.90000 87.000
14.92000 77.000
14.94000 100.000
14.96000 109.000
14.98000 93.000
15.00000 101.000
15.02000 95.000
15.04000 83.000
15.06000 77.000
15.08000 107.000
15.10000 88.000
15.12000 85.000
15.14000 97.000
15.16000 111.000
15.18000 91.000
15.20000 85.000
15.22000 95.000
15.24000 98.000
15.26000 93.000
15.28000 93.000
15.30000 71.000
15.32000 96.000
15.34000 115.000
15.36000 109.000
15.38000 123.000
15.40000 101.000
15.42000 113.000
15.44000 118.000
15.46000 123.000
15.48000 120.000
15.50000 111.000
15.52000 111.000
15.54000 113.000
15.56000 127.000
15.58000 126.000
15.60000 126.000
15.62000 135.000
15.64000 132.000
15.66000 131.000
15.68000 159.000
15.70000 155.000
15.72000 141.000
15.74000 187.000
15.76000 174.000
15.78000 191.000
15.80000 199.000
15.82000 176.000
15.84000 144.000
15.86000 137.000
15.88000 145.000
15.90000 98.000
15.92000 106.000
15.94000 108.000
15.96000 108.000
15.98000 76.000
16.00000 109.000
16.02000 104.000
16.04000 98.000
16.06000 118.000
16.08000 76.000
16.10000 96.000
16.12000 94.000
16.14000 86.000
16.16000 87.000
16.18000 76.000
16.20000 74.000
16.22000 88.000
16.24000 88.000
16.26000 107.000
16.28000 93.000
16.30000 95.000
16.32000 96.000
16.34000 95.000
16.36000 80.000
16.38000 94.000
16.40000 89.000
16.42000 94.000
16.44000 95.000
16.46000 74.000
16.48000 70.000
16.50000 82.000
16.52000 85.000
16.54000 92.000
16.56000 95.000
16.58000 83.000
16.60000 100.000
16.62000 85.000
16.64000 95.000
16.66000 97.000
16.68000 70.000
16.70000 84.000
16.72000 87.000
16.74000 100.000
16.76000 83.000
16.78000 79.000
16.80000 107.000
16.82000 75.000
16.84000 82.000
16.86000 95.000
16.88000 102.000
16.90000 85.000
16.92000 80.000
16.94000 88.000
16.96000 92.000
16.98000 79.000
17.00000 99.000
17.02000 97.000
17.04000 102.000
17.06000 73.000
17.08000 106.000
17.10000 77.000
17.12000 90.000
17.14000 75.000
17.16000 97.000
17.18000 95.000
17.20000 81.000
17.22000 83.000
17.24000 86.000
17.26000 78.000
17.28000 71.000
17.30000 108.000
17.32000 89.000
17.34000 85.000
17.36000 88.000
17.38000 76.000
17.40000 75.000
17.42000 107.000
17.44000 91.000
17.46000 73.000
17.48000 84.000
17.50000 89.000
17.52000 89.000
17.54000 98.000
17.56000 96.000
17.58000 88.000
17.60000 84.000
17.62000 77.000
17.64000 82.000
17.66000 86.000
17.68000 77.000
17.70000 91.000
17.72000 89.000
17.74000 95.000
17.76000 81.000
17.78000 79.000
17.80000 87.000
17.82000 98.000
17.84000 89.000
17.86000 88.000
17.88000 101.000
17.90000 90.000
17.92000 93.000
17.94000 89.000
17.96000 82.000
17.98000 82.000
18.00000 103.000
18.02000 98.000
18.04000 107.000
18.06000 90.000
18.08000 119.000
18.10000 100.000
18.12000 107.000
18.14000 101.000
18.16000 119.000
18.18000 109.000
18.20000 109.000
18.22000 110.000
18.24000 114.000
18.26000 92.000
18.28000 90.000
18.30000 99.000
18.32000 99.000
18.34000 115.000
18.36000 88.000
18.38000 104.000
18.40000 91.000
18.42000 97.000
18.44000 82.000
18.46000 76.000
18.48000 76.000
18.50000 91.000
18.52000 84.000
18.54000 95.000
18.56000 80.000
18.58000 101.000
18.60000 83.000
18.62000 87.000
18.64000 93.000
18.66000 72.000
18.68000 84.000
18.70000 82.000
18.72000 77.000
18.74000 78.000
18.76000 82.000
18.78000 94.000
18.80000 102.000
18.82000 96.000
18.84000 84.000
18.86000 93.000
18.88000 92.000
18.90000 95.000
18.92000 86.000
18.94000 87.000
18.96000 100.000
18.98000 95.000
19.00000 90.000
19.02000 85.000
19.04000 93.000
19.06000 82.000
19.08000 79.000
19.10000 96.000
19.12000 88.000
19.14000 96.000
19.16000 89.000
19.18000 99.000
19.20000 102.000
19.22000 91.000
19.24000 89.000
19.26000 102.000
19.28000 96.000
19.30000 112.000
19.32000 93.000
19.34000 95.000
19.36000 97.000
19.38000 95.000
19.40000 95.000
19.42000 114.000
19.44000 91.000
19.46000 103.000
19.48000 101.000
19.50000 110.000
19.52000 93.000
19.54000 116.000
19.56000 102.000
19.58000 104.000
19.60000 87.000
19.62000 106.000
19.64000 94.000
19.66000 97.000
19.68000 103.000
19.70000 99.000
19.72000 87.000
19.74000 92.000
19.76000 109.000
19.78000 97.000
19.80000 104.000
19.82000 86.000
19.84000 109.000
19.86000 91.000
19.88000 95.000
19.90000 99.000
19.92000 102.000
19.94000 96.000
19.96000 102.000
19.98000 108.000
20.00000 92.000
20.02000 98.000
20.04000 112.000
20.06000 105.000
20.08000 124.000
20.10000 121.000
20.12000 126.000
20.14000 123.000
20.16000 153.000
20.18000 153.000
20.20000 157.000
20.22000 170.000
20.24000 179.000
20.26000 184.000
20.28000 187.000
20.30000 208.000
20.32000 229.000
20.34000 245.000
20.36000 241.000
20.38000 252.000
20.40000 250.000
20.42000 317.000
20.44000 312.000
20.46000 376.000
20.48000 408.000
20.50000 490.000
20.52000 613.000
20.54000 691.000
20.56000 749.000
20.58000 897.000
20.60000 930.000
20.62000 1163.000
20.64000 1133.000
20.66000 1174.000
20.68000 1048.000
20.70000 838.000
20.72000 684.000
20.74000 560.000
20.76000 387.000
20.78000 294.000
20.80000 250.000
20.82000 226.000
20.84000 182.000
20.86000 139.000
20.88000 115.000
20.90000 118.000
20.92000 122.000
20.94000 115.000
20.96000 125.000
20.98000 101.000
21.00000 94.000
21.02000 82.000
21.04000 101.000
21.06000 106.000
21.08000 91.000
21.10000 95.000
21.12000 102.000
21.14000 98.000
21.16000 99.000
21.18000 91.000
21.20000 92.000
21.22000 91.000
21.24000 94.000
21.26000 98.000
21.28000 102.000
21.30000 86.000
21.32000 96.000
21.34000 101.000
21.36000 97.000
21.38000 93.000
21.40000 91.000
21.42000 99.000
21.44000 104.000
21.46000 94.000
21.48000 93.000
21.50000 97.000
21.52000 99.000
21.54000 89.000
21.56000 86.000
21.58000 92.000
21.60000 89.000
21.62000 89.000
21.64000 101.000
21.66000 88.000
21.68000 104.000
21.70000 110.000
21.72000 105.000
21.74000 99.000
21.76000 92.000
21.78000 85.000
21.80000 103.000
21.82000 101.000
21.84000 86.000
21.86000 99.000
21.88000 91.000
21.90000 88.000
21.92000 95.000
21.94000 106.000
21.96000 105.000
21.98000 119.000
22.00000 105.000
22.02000 107.000
22.04000 113.000
22.06000 126.000
22.08000 126.000
22.10000 140.000
22.12000 141.000
22.14000 155.000
22.16000 176.000
22.18000 189.000
22.20000 202.000
22.22000 209.000
22.24000 240.000
22.26000 232.000
22.28000 299.000
22.30000 296.000
22.32000 339.000
22.34000 403.000
22.36000 352.000
22.38000 418.000
22.40000 420.000
22.42000 417.000
22.44000 416.000
22.46000 344.000
22.48000 284.000
22.50000 257.000
22.52000 223.000
22.54000 183.000
22.56000 164.000
22.58000 159.000
22.60000 159.000
22.62000 137.000
22.64000 130.000
22.66000 118.000
22.68000 116.000
22.70000 126.000
22.72000 116.000
22.74000 103.000
22.76000 123.000
22.78000 121.000
22.80000 116.000
22.82000 102.000
22.84000 118.000
22.86000 119.000
22.88000 115.000
22.90000 129.000
22.92000 115.000
22.94000 110.000
22.96000 104.000
22.98000 95.000
23.00000 118.000
23.02000 99.000
23.04000 109.000
23.06000 114.000
23.08000 113.000
23.10000 124.000
23.12000 123.000
23.14000 118.000
23.16000 134.000
23.18000 149.000
23.20000 120.000
23.22000 151.000
23.24000 128.000
23.26000 153.000
23.28000 184.000
23.30000 175.000
23.32000 204.000
23.34000 184.000
23.36000 180.000
23.38000 188.000
23.40000 199.000
23.42000 218.000
23.44000 213.000
23.46000 199.000
23.48000 188.000
23.50000 182.000
23.52000 155.000
23.54000 168.000
23.56000 183.000
23.58000 165.000
23.60000 153.000
23.62000 162.000
23.64000 132.000
23.66000 149.000
23.68000 154.000
23.70000 130.000
23.72000 104.000
23.74000 126.000
23.76000 109.000
23.78000 119.000
23.80000 129.000
23.82000 105.000
23.84000 99.000
23.86000 94.000
23.88000 100.000
23.90000 96.000
23.92000 110.000
23.94000 107.000
23.96000 87.000
23.98000 103.000
24.00000 106.000
24.02000 93.000
24.04000 112.000
24.06000 75.000
24.08000 109.000
24.10000 89.000
24.12000 86.000
24.14000 105.000
24.16000 96.000
24.18000 95.000
24.20000 103.000
24.22000 120.000
24.24000 111.000
24.26000 125.000
24.28000 110.000
24.30000 108.000
24.32000 117.000
24.34000 110.000
24.36000 97.000
24.38000 70.000
24.40000 110.000
24.42000 74.000
24.44000 103.000
24.46000 113.000
24.48000 102.000
24.50000 91.000
24.52000 95.000
24.54000 96.000
24.56000 83.000
24.58000 99.000
24.60000 93.000
24.62000 100.000
24.64000 114.000
24.66000 108.000
24.68000 109.000
24.70000 136.000
24.72000 105.000
24.74000 140.000
24.76000 118.000
24.78000 131.000
24.80000 134.000
24.82000 161.000
24.84000 170.000
24.86000 195.000
24.88000 199.000
24.90000 233.000
24.92000 195.000
24.94000 181.000
24.96000 163.000
24.98000 172.000
25.00000 122.000
25.02000 118.000
25.04000 106.000
25.06000 106.000
25.08000 106.000
25.10000 96.000
25.12000 105.000
25.14000 95.000
25.16000 89.000
25.18000 91.000
25.20000 98.000
25.22000 94.000
25.24000 97.000
25.26000 114.000
25.28000 97.000
25.30000 105.000
25.32000 93.000
25.34000 107.000
25.36000 92.000
25.38000 132.000
25.40000 97.000
25.42000 128.000
25.44000 102.000
25.46000 105.000
25.48000 97.000
25.50000 93.000
25.52000 107.000
25.54000 118.000
25.56000 111.000
25.58000 99.000
25.60000 99.000
25.62000 107.000
25.64000 108.000
25.66000 122.000
25.68000 107.000
25.70000 106.000
25.72000 137.000
25.74000 143.000
25.76000 144.000
25.78000 148.000
25.80000 172.000
25.82000 142.000
25.84000 166.000
25.86000 167.000
25.88000 198.000
25.90000 193.000
25.92000 222.000
25.94000 227.000
25.96000 208.000
25.98000 235.000
26.00000 207.000
26.02000 209.000
26.04000 223.000
26.06000 183.000
26.08000 187.000
26.10000 140.000
26.12000 165.000
26.14000 163.000
26.16000 130.000
26.18000 107.000
26.20000 143.000
26.22000 154.000
26.24000 117.000
26.26000 146.000
26.28000 129.000
26.30000 134.000
26.32000 126.000
26.34000 131.000
26.36000 169.000
26.38000 144.000
26.40000 161.000
26.42000 156.000
26.44000 188.000
26.46000 163.000
26.48000 179.000
26.50000 167.000
26.52000 145.000
26.54000 169.000
26.56000 140.000
26.58000 161.000
26.60000 147.000
26.62000 155.000
26.64000 155.000
26.66000 138.000
26.68000 140.000
26.70000 136.000
26.72000 137.000
26.74000 130.000
26.76000 147.000
26.78000 148.000
26.80000 134.000
26.82000 130.000
26.84000 167.000
26.86000 155.000
26.88000 160.000
26.90000 164.000
26.92000 174.000
26.94000 149.000
26.96000 161.000
26.98000 128.000
27.00000 149.000
27.02000 150.000
27.04000 178.000
27.06000 185.000
27.08000 182.000
27.10000 176.000
27.12000 188.000
27.14000 248.000
27.16000 244.000
27.18000 231.000
27.20000 309.000
27.22000 275.000
27.24000 284.000
27.26000 346.000
27.28000 380.000
27.30000 370.000
27.32000 390.000
27.34000 410.000
27.36000 376.000
27.38000 497.000
27.40000 491.000
27.42000 534.000
27.44000 596.000
27.46000 640.000
27.48000 747.000
27.50000 768.000
27.52000 854.000
27.54000 832.000
27.56000 810.000
27.58000 741.000
27.60000 646.000
27.62000 571.000
27.64000 481.000
27.66000 391.000
27.68000 324.000
27.70000 275.000
27.72000 274.000
27.74000 233.000
27.76000 190.000
27.78000 207.000
27.80000 215.000
27.82000 186.000
27.84000 195.000
27.86000 228.000
27.88000 212.000
27.90000 225.000
27.92000 274.000
27.94000 324.000
27.96000 335.000
27.98000 388.000
28.00000 344.000
28.02000 350.000
28.04000 305.000
28.06000 297.000
28.08000 261.000
28.10000 225.000
28.12000 217.000
28.14000 202.000
28.16000 149.000
28.18000 147.000
28.20000 158.000
28.22000 128.000
28.24000 127.000
28.26000 113.000
28.28000 129.000
28.30000 130.000
28.32000 109.000
28.34000 137.000
28.36000 124.000
28.38000 133.000
28.40000 127.000
28.42000 159.000
28.44000 125.000
28.46000 128.000
28.48000 153.000
28.50000 162.000
28.52000 147.000
28.54000 147.000
28.56000 170.000
28.58000 164.000
28.60000 190.000
28.62000 165.000
28.64000 175.000
28.66000 217.000
28.68000 197.000
28.70000 209.000
28.72000 222.000
28.74000 229.000
28.76000 251.000
28.78000 247.000
28.80000 246.000
28.82000 239.000
28.84000 216.000
28.86000 209.000
28.88000 241.000
28.90000 217.000
28.92000 243.000
28.94000 262.000
28.96000 264.000
28.98000 313.000
29.00000 355.000
29.02000 429.000
29.04000 441.000
29.06000 477.000
29.08000 546.000
29.10000 644.000
29.12000 742.000
29.14000 917.000
29.16000 1063.000
29.18000 1207.000
29.20000 1531.000
29.22000 1752.000
29.24000 2063.000
29.26000 2600.000
29.28000 3020.000
29.30000 3696.000
29.32000 4387.000
29.34000 4629.000
29.36000 4481.000
29.38000 4337.000
29.40000 3831.000
29.42000 3121.000
29.44000 2735.000
29.46000 2080.000
29.48000 1588.000
29.50000 1197.000
29.52000 917.000
29.54000 720.000
29.56000 589.000
29.58000 446.000
29.60000 361.000
29.62000 332.000
29.64000 300.000
29.66000 255.000
29.68000 256.000
29.70000 240.000
29.72000 266.000
29.74000 249.000
29.76000 273.000
29.78000 250.000
29.80000 215.000
29.82000 194.000
29.84000 192.000
29.86000 173.000
29.88000 198.000
29.90000 184.000
29.92000 207.000
29.94000 177.000
29.96000 156.000
29.98000 191.000
30.00000 170.000
30.02000 180.000
30.04000 148.000
30.06000 145.000
30.08000 142.000
30.10000 144.000
30.12000 123.000
30.14000 117.000
30.16000 114.000
30.18000 130.000
30.20000 99.000
30.22000 103.000
30.24000 132.000
30.26000 90.000
30.28000 87.000
30.30000 113.000
30.32000 100.000
30.34000 117.000
30.36000 98.000
30.38000 102.000
30.40000 107.000
30.42000 118.000
30.44000 118.000
30.46000 106.000
30.48000 127.000
30.50000 109.000
30.52000 139.000
30.54000 115.000
30.56000 122.000
30.58000 121.000
30.60000 105.000
30.62000 115.000
30.64000 111.000
30.66000 99.000
30.68000 119.000
30.70000 82.000
30.72000 111.000
30.74000 117.000
30.76000 144.000
30.78000 106.000
30.80000 125.000
30.82000 118.000
30.84000 110.000
30.86000 141.000
30.88000 123.000
30.90000 139.000
30.92000 126.000
30.94000 105.000
30.96000 108.000
30.98000 102.000
31.00000 116.000
31.02000 97.000
31.04000 97.000
31.06000 115.000
31.08000 104.000
31.10000 119.000
31.12000 108.000
31.14000 96.000
31.16000 96.000
31.18000 104.000
31.20000 103.000
31.22000 104.000
31.24000 108.000
31.26000 102.000
31.28000 88.000
31.30000 99.000
31.32000 104.000
31.34000 128.000
31.36000 113.000
31.38000 122.000
31.40000 127.000
31.42000 134.000
31.44000 104.000
31.46000 155.000
31.48000 138.000
31.50000 131.000
31.52000 139.000
31.54000 165.000
31.56000 167.000
31.58000 168.000
31.60000 203.000
31.62000 194.000
31.64000 197.000
31.66000 268.000
31.68000 262.000
31.70000 287.000
31.72000 333.000
31.74000 355.000
31.76000 436.000
31.78000 467.000
31.80000 569.000
31.82000 635.000
31.84000 728.000
31.86000 830.000
31.88000 850.000
31.90000 965.000
31.92000 981.000
31.94000 871.000
31.96000 768.000
31.98000 697.000
32.00000 595.000
32.02000 514.000
32.04000 426.000
32.06000 334.000
32.08000 271.000
32.10000 303.000
32.12000 228.000
32.14000 176.000
32.16000 168.000
32.18000 151.000
32.20000 127.000
32.22000 143.000
32.24000 136.000
32.26000 112.000
32.28000 96.000
32.30000 117.000
32.32000 101.000
32.34000 128.000
32.36000 100.000
32.38000 92.000
32.40000 121.000
32.42000 100.000
32.44000 98.000
32.46000 87.000
32.48000 96.000
32.50000 105.000
32.52000 90.000
32.54000 94.000
32.56000 90.000
32.58000 87.000
32.60000 76.000
32.62000 125.000
32.64000 103.000
32.66000 97.000
32.68000 95.000
32.70000 84.000
32.72000 111.000
32.74000 113.000
32.76000 105.000
32.78000 105.000
32.80000 96.000
32.82000 108.000
32.84000 98.000
32.86000 89.000
32.88000 102.000
32.90000 98.000
32.92000 105.000
32.94000 107.000
32.96000 113.000
32.98000 106.000
33.00000 98.000
33.02000 122.000
33.04000 129.000
33.06000 107.000
33.08000 102.000
33.10000 97.000
33.12000 106.000
33.14000 101.000
33.16000 110.000
33.18000 90.000
33.20000 97.000
33.22000 88.000
33.24000 94.000
33.26000 98.000
33.28000 93.000
33.30000 93.000
33.32000 93.000
33.34000 86.000
33.36000 98.000
33.38000 106.000
33.40000 104.000
33.42000 85.000
33.44000 106.000
33.46000 86.000
33.48000 100.000
33.50000 100.000
33.52000 93.000
33.54000 105.000
33.56000 89.000
33.58000 109.000
33.60000 118.000
33.62000 111.000
33.64000 95.000
33.66000 118.000
33.68000 104.000
33.70000 95.000
33.72000 131.000
33.74000 125.000
33.76000 118.000
33.78000 128.000
33.80000 128.000
33.82000 106.000
33.84000 140.000
33.86000 121.000
33.88000 128.000
33.90000 130.000
33.92000 119.000
33.94000 136.000
33.96000 110.000
33.98000 98.000
34.00000 103.000
34.02000 106.000
34.04000 102.000
34.06000 79.000
34.08000 103.000
34.10000 97.000
34.12000 88.000
34.14000 88.000
34.16000 81.000
34.18000 95.000
34.20000 89.000
34.22000 90.000
34.24000 95.000
34.26000 115.000
34.28000 70.000
34.30000 79.000
34.32000 107.000
34.34000 101.000
34.36000 107.000
34.38000 109.000
34.40000 109.000
34.42000 98.000
34.44000 126.000
34.46000 124.000
34.48000 98.000
34.50000 121.000
34.52000 107.000
34.54000 128.000
34.56000 127.000
34.58000 136.000
34.60000 118.000
34.62000 121.000
34.64000 141.000
34.66000 111.000
34.68000 114.000
34.70000 89.000
34.72000 97.000
34.74000 89.000
34.76000 100.000
34.78000 79.000
34.80000 105.000
34.82000 99.000
34.84000 84.000
34.86000 85.000
34.88000 86.000
34.90000 88.000
34.92000 83.000
34.94000 89.000
34.96000 85.000
34.98000 108.000
35.00000 78.000
35.02000 79.000
35.04000 86.000
35.06000 91.000
35.08000 75.000
35.10000 79.000
35.12000 81.000
35.14000 69.000
35.16000 84.000
35.18000 101.000
35.20000 72.000
35.22000 73.000
35.24000 63.000
35.26000 74.000
35.28000 86.000
35.30000 80.000
35.32000 89.000
35.34000 78.000
35.36000 76.000
35.38000 82.000
35.40000 78.000
35.42000 76.000
35.44000 96.000
35.46000 76.000
35.48000 88.000
35.50000 86.000
35.52000 82.000
35.54000 99.000
35.56000 85.000
35.58000 98.000
35.60000 106.000
35.62000 73.000
35.64000 103.000
35.66000 85.000
35.68000 107.000
35.70000 124.000
35.72000 105.000
35.74000 110.000
35.76000 99.000
35.78000 94.000
35.80000 102.000
35.82000 116.000
35.84000 101.000
35.86000 132.000
35.88000 113.000
35.90000 107.000
35.92000 108.000
35.94000 109.000
35.96000 114.000
35.98000 124.000
36.00000 129.000
36.02000 135.000
36.04000 130.000
36.06000 142.000
36.08000 150.000
36.10000 164.000
36.12000 139.000
36.14000 151.000
36.16000 165.000
36.18000 153.000
36.20000 134.000
36.22000 139.000
36.24000 140.000
36.26000 144.000
36.28000 125.000
36.30000 92.000
36.32000 90.000
36.34000 92.000
36.36000 89.000
36.38000 93.000
36.40000 68.000
36.42000 91.000
36.44000 90.000
36.46000 86.000
36.48000 86.000
36.50000 77.000
36.52000 108.000
36.54000 81.000
36.56000 108.000
36.58000 92.000
36.60000 113.000
36.62000 99.000
36.64000 98.000
36.66000 104.000
36.68000 90.000
36.70000 103.000
36.72000 89.000
36.74000 114.000
36.76000 99.000
36.78000 98.000
36.80000 107.000
36.82000 101.000
36.84000 120.000
36.86000 130.000
36.88000 134.000
36.90000 98.000
36.92000 117.000
36.94000 116.000
36.96000 131.000
36.98000 135.000
37.00000 115.000
37.02000 123.000
37.04000 127.000
37.06000 119.000
37.08000 109.000
37.10000 107.000
37.12000 105.000
37.14000 115.000
37.16000 95.000
37.18000 107.000
37.20000 105.000
37.22000 101.000
37.24000 105.000
37.26000 102.000
37.28000 103.000
37.30000 93.000
37.32000 86.000
37.34000 93.000
37.36000 95.000
37.38000 107.000
37.40000 98.000
37.42000 121.000
37.44000 109.000
37.46000 77.000
37.48000 107.000
37.50000 103.000
37.52000 115.000
37.54000 113.000
37.56000 128.000
37.58000 115.000
37.60000 119.000
37.62000 116.000
37.64000 104.000
37.66000 94.000
37.68000 95.000
37.70000 92.000
37.72000 108.000
37.74000 94.000
37.76000 96.000
37.78000 107.000
37.80000 83.000
37.82000 111.000
37.84000 115.000
37.86000 96.000
37.88000 119.000
37.90000 108.000
37.92000 126.000
37.94000 108.000
37.96000 120.000
37.98000 139.000
38.00000 136.000
38.02000 143.000
38.04000 181.000
38.06000 176.000
38.08000 150.000
38.10000 186.000
38.12000 154.000
38.14000 150.000
38.16000 148.000
38.18000 143.000
38.20000 134.000
38.22000 128.000
38.24000 122.000
38.26000 133.000
38.28000 124.000
38.30000 103.000
38.32000 117.000
38.34000 103.000
38.36000 102.000
38.38000 92.000
38.40000 88.000
38.42000 108.000
38.44000 99.000
38.46000 88.000
38.48000 87.000
38.50000 93.000
38.52000 82.000
38.54000 94.000
38.56000 96.000
38.58000 71.000
38.60000 97.000
38.62000 81.000
38.64000 97.000
38.66000 83.000
38.68000 85.000
38.70000 82.000
38.72000 103.000
38.74000 80.000
38.76000 97.000
38.78000 77.000
38.80000 89.000
38.82000 81.000
38.84000 87.000
38.86000 92.000
38.88000 70.000
38.90000 94.000
38.92000 75.000
38.94000 77.000
38.96000 77.000
38.98000 94.000
39.00000 98.000
39.02000 90.000
39.04000 90.000
39.06000 102.000
39.08000 109.000
39.10000 123.000
39.12000 120.000
39.14000 132.000
39.16000 151.000
39.18000 167.000
39.20000 194.000
39.22000 199.000
39.24000 220.000
39.26000 242.000
39.28000 290.000
39.30000 329.000
39.32000 321.000
39.34000 340.000
39.36000 328.000
39.38000 304.000
39.40000 254.000
39.42000 254.000
39.44000 246.000
39.46000 236.000
39.48000 201.000
39.50000 149.000
39.52000 159.000
39.54000 128.000
39.56000 134.000
39.58000 104.000
39.60000 118.000
39.62000 98.000
39.64000 98.000
39.66000 90.000
39.68000 95.000
39.70000 90.000
39.72000 96.000
39.74000 93.000
39.76000 100.000
39.78000 107.000
39.80000 94.000
39.82000 115.000
39.84000 86.000
39.86000 90.000
39.88000 93.000
39.90000 92.000
39.92000 84.000
39.94000 97.000
39.96000 89.000
39.98000 77.000
40.00000 99.000
40.02000 84.000
40.04000 84.000
40.06000 95.000
40.08000 101.000
40.10000 99.000
40.12000 106.000
40.14000 95.000
40.16000 92.000
40.18000 103.000
40.20000 81.000
40.22000 93.000
40.24000 90.000
40.26000 89.000
40.28000 102.000
40.30000 89.000
40.32000 101.000
40.34000 97.000
40.36000 106.000
40.38000 107.000
40.40000 86.000
40.42000 93.000
40.44000 74.000
40.46000 79.000
40.48000 98.000
40.50000 67.000
40.52000 98.000
40.54000 101.000
40.56000 78.000
40.58000 107.000
40.60000 98.000
40.62000 92.000
40.64000 98.000
40.66000 97.000
40.68000 97.000
40.70000 111.000
40.72000 76.000
40.74000 79.000
40.76000 100.000
40.78000 93.000
40.80000 100.000
40.82000 98.000
40.84000 102.000
40.86000 83.000
40.88000 84.000
40.90000 94.000
40.92000 76.000
40.94000 86.000
40.96000 86.000
40.98000 78.000
41.00000 86.000
41.02000 85.000
41.04000 94.000
41.06000 72.000
41.08000 91.000
41.10000 99.000
41.12000 80.000
41.14000 89.000
41.16000 115.000
41.18000 103.000
41.20000 100.000
41.22000 115.000
41.24000 96.000
41.26000 106.000
41.28000 109.000
41.30000 107.000
41.32000 83.000
41.34000 112.000
41.36000 106.000
41.38000 86.000
41.40000 99.000
41.42000 110.000
41.44000 109.000
41.46000 114.000
41.48000 83.000
41.50000 119.000
41.52000 108.000
41.54000 88.000
41.56000 112.000
41.58000 101.000
41.60000 95.000
41.62000 123.000
41.64000 139.000
41.66000 107.000
41.68000 168.000
41.70000 151.000
41.72000 152.000
41.74000 175.000
41.76000 216.000
41.78000 227.000
41.80000 295.000
41.82000 311.000
41.84000 403.000
41.86000 506.000
41.88000 577.000
41.90000 645.000
41.92000 826.000
41.94000 987.000
41.96000 1148.000
41.98000 1283.000
42.00000 1259.000
42.02000 1309.000
42.04000 1294.000
42.06000 1125.000
42.08000 1025.000
42.10000 933.000
42.12000 850.000
42.14000 697.000
42.16000 589.000
42.18000 467.000
42.20000 358.000
42.22000 305.000
42.24000 206.000
42.26000 207.000
42.28000 191.000
42.30000 171.000
42.32000 138.000
42.34000 159.000
42.36000 155.000
42.38000 126.000
42.40000 139.000
42.42000 131.000
42.44000 116.000
42.46000 136.000
42.48000 133.000
42.50000 132.000
42.52000 118.000
42.54000 117.000
42.56000 125.000
42.58000 124.000
42.60000 116.000
42.62000 107.000
42.64000 111.000
42.66000 117.000
42.68000 129.000
42.70000 123.000
42.72000 105.000
42.74000 128.000
42.76000 150.000
42.78000 119.000
42.80000 102.000
42.82000 121.000
42.84000 130.000
42.86000 94.000
42.88000 114.000
42.90000 106.000
42.92000 88.000
42.94000 88.000
42.96000 96.000
42.98000 96.000
43.00000 95.000
43.02000 101.000
43.04000 75.000
43.06000 94.000
43.08000 83.000
43.10000 94.000
43.12000 80.000
43.14000 99.000
43.16000 96.000
43.18000 88.000
43.20000 84.000
43.22000 83.000
43.24000 83.000
43.26000 73.000
43.28000 89.000
43.30000 80.000
43.32000 94.000
43.34000 87.000
43.36000 89.000
43.38000 76.000
43.40000 70.000
43.42000 70.000
43.44000 91.000
43.46000 67.000
43.48000 95.000
43.50000 85.000
43.52000 80.000
43.54000 115.000
43.56000 93.000
43.58000 94.000
43.60000 116.000
43.62000 100.000
43.64000 105.000
43.66000 94.000
43.68000 100.000
43.70000 107.000
43.72000 120.000
43.74000 131.000
43.76000 97.000
43.78000 88.000
43.80000 91.000
43.82000 104.000
43.84000 95.000
43.86000 81.000
43.88000 117.000
43.90000 106.000
43.92000 93.000
43.94000 92.000
43.96000 85.000
43.98000 81.000
44.00000 90.000
44.02000 86.000
44.04000 92.000
44.06000 81.000
44.08000 85.000
44.10000 87.000
44.12000 92.000
44.14000 88.000
44.16000 87.000
44.18000 105.000
44.20000 90.000
44.22000 99.000
44.24000 81.000
44.26000 96.000
44.28000 92.000
44.30000 93.000
44.32000 82.000
44.34000 102.000
44.36000 85.000
44.38000 98.000
44.40000 86.000
44.42000 101.000
44.44000 96.000
44.46000 82.000
44.48000 98.000
44.50000 104.000
44.52000 96.000
44.54000 81.000
44.56000 91.000
44.58000 101.000
44.60000 88.000
44.62000 82.000
44.64000 94.000
44.66000 88.000
44.68000 94.000
44.70000 103.000
44.72000 96.000
44.74000 98.000
44.76000 99.000
44.78000 97.000
44.80000 90.000
44.82000 104.000
44.84000 98.000
44.86000 96.000
44.88000 99.000
44.90000 94.000
44.92000 86.000
44.94000 84.000
44.96000 95.000
44.98000 99.000
45.00000 99.000
45.02000 100.000
45.04000 81.000
45.06000 100.000
45.08000 71.000
45.10000 97.000
45.12000 103.000
45.14000 92.000
45.16000 108.000
45.18000 89.000
45.20000 75.000
45.22000 92.000
45.24000 106.000
45.26000 105.000
45.28000 88.000
45.30000 88.000
45.32000 90.000
45.34000 111.000
45.36000 101.000
45.38000 103.000
45.40000 124.000
45.42000 115.000
45.44000 143.000
45.46000 128.000
45.48000 126.000
45.50000 150.000
45.52000 159.000
45.54000 162.000
45.56000 176.000
45.58000 179.000
45.60000 255.000
45.62000 262.000
45.64000 284.000
45.66000 336.000
45.68000 376.000
45.70000 442.000
45.72000 450.000
45.74000 475.000
45.76000 471.000
45.78000 412.000
45.80000 406.000
45.82000 432.000
45.84000 389.000
45.86000 397.000
45.88000 356.000
45.90000 299.000
45.92000 259.000
45.94000 228.000
45.96000 220.000
45.98000 178.000
46.00000 180.000
46.02000 137.000
46.04000 151.000
46.06000 134.000
46.08000 124.000
46.10000 113.000
46.12000 114.000
46.14000 107.000
46.16000 113.000
46.18000 121.000
46.20000 95.000
46.22000 119.000
46.24000 89.000
46.26000 113.000
46.28000 94.000
46.30000 95.000
46.32000 88.000
46.34000 119.000
46.36000 85.000
46.38000 88.000
46.40000 94.000
46.42000 94.000
46.44000 87.000
46.46000 88.000
46.48000 84.000
46.50000 82.000
46.52000 101.000
46.54000 94.000
46.56000 112.000
46.58000 94.000
46.60000 102.000
46.62000 87.000
46.64000 101.000
46.66000 104.000
46.68000 120.000
46.70000 118.000
46.72000 131.000
46.74000 109.000
46.76000 78.000
46.78000 104.000
46.80000 109.000
46.82000 79.000
46.84000 90.000
46.86000 83.000
46.88000 80.000
46.90000 82.000
46.92000 101.000
46.94000 107.000
46.96000 98.000
46.98000 106.000
47.00000 100.000
47.02000 125.000
47.04000 116.000
47.06000 113.000
47.08000 111.000
47.10000 121.000
47.12000 171.000
47.14000 149.000
47.16000 190.000
47.18000 222.000
47.20000 248.000
47.22000 248.000
47.24000 244.000
47.26000 277.000
47.28000 217.000
47.30000 211.000
47.32000 207.000
47.34000 205.000
47.36000 193.000
47.38000 200.000
47.40000 177.000
47.42000 150.000
47.44000 124.000
47.46000 104.000
47.48000 112.000
47.50000 104.000
47.52000 97.000
47.54000 102.000
47.56000 113.000
47.58000 97.000
47.60000 107.000
47.62000 108.000
47.64000 90.000
47.66000 89.000
47.68000 93.000
47.70000 92.000
47.72000 94.000
47.74000 95.000
47.76000 105.000
47.78000 89.000
47.80000 115.000
47.82000 112.000
47.84000 107.000
47.86000 91.000
47.88000 110.000
47.90000 108.000
47.92000 104.000
47.94000 116.000
47.96000 104.000
47.98000 128.000
48.00000 113.000
48.02000 113.000
48.04000 130.000
48.06000 120.000
48.08000 124.000
48.10000 120.000
48.12000 125.000
48.14000 127.000
48.16000 140.000
48.18000 138.000
48.20000 133.000
48.22000 136.000
48.24000 143.000
48.26000 153.000
48.28000 144.000
48.30000 150.000
48.32000 127.000
48.34000 135.000
48.36000 124.000
48.38000 167.000
48.40000 141.000
48.42000 111.000
48.44000 137.000
48.46000 123.000
48.48000 128.000
48.50000 126.000
48.52000 110.000
48.54000 121.000
48.56000 99.000
48.58000 92.000
48.60000 101.000
48.62000 120.000
48.64000 118.000
48.66000 100.000
48.68000 111.000
48.70000 119.000
48.72000 109.000
48.74000 120.000
48.76000 131.000
48.78000 108.000
48.80000 103.000
48.82000 110.000
48.84000 111.000
48.86000 105.000
48.88000 107.000
48.90000 93.000
48.92000 91.000
48.94000 88.000
48.96000 96.000
48.98000 82.000
49.00000 81.000
49.02000 98.000
49.04000 107.000
49.06000 69.000
49.08000 76.000
49.10000 96.000
49.12000 79.000
49.14000 102.000
49.16000 83.000
49.18000 107.000
49.20000 98.000
49.22000 95.000
49.24000 93.000
49.26000 87.000
49.28000 82.000
49.30000 87.000
49.32000 98.000
49.34000 103.000
49.36000 94.000
49.38000 87.000
49.40000 87.000
49.42000 90.000
49.44000 85.000
49.46000 90.000
49.48000 92.000
49.50000 69.000
49.52000 73.000
49.54000 95.000
49.56000 74.000
49.58000 106.000
49.60000 101.000
49.62000 97.000
49.64000 98.000
49.66000 113.000
49.68000 95.000
49.70000 118.000
49.72000 129.000
49.74000 93.000
49.76000 91.000
49.78000 107.000
49.80000 113.000
49.82000 111.000
49.84000 101.000
49.86000 89.000
49.88000 96.000
49.90000 99.000
49.92000 86.000
49.94000 84.000
49.96000 88.000
49.98000 85.000
50.00000 86.000
50.02000 87.000
50.04000 117.000
50.06000 115.000
50.08000 109.000
50.10000 126.000
50.12000 124.000
50.14000 127.000
50.16000 149.000
50.18000 137.000
50.20000 134.000
50.22000 164.000
50.24000 131.000
50.26000 137.000
50.28000 139.000
50.30000 124.000
50.32000 143.000
50.34000 104.000
50.36000 122.000
50.38000 126.000
50.40000 109.000
50.42000 119.000
50.44000 109.000
50.46000 90.000
50.48000 108.000
50.50000 106.000
50.52000 97.000
50.54000 88.000
50.56000 86.000
50.58000 95.000
50.60000 102.000
50.62000 104.000
50.64000 76.000
50.66000 94.000
50.68000 80.000
50.70000 120.000
50.72000 94.000
50.74000 104.000
50.76000 88.000
50.78000 98.000
50.80000 89.000
50.82000 92.000
50.84000 86.000
50.86000 91.000
50.88000 85.000
50.90000 87.000
50.92000 109.000
50.94000 92.000
50.96000 83.000
50.98000 85.000
51.00000 107.000
51.02000 86.000
51.04000 86.000
51.06000 87.000
51.08000 98.000
51.10000 102.000
51.12000 88.000
51.14000 89.000
51.16000 101.000
51.18000 85.000
51.20000 93.000
51.22000 86.000
51.24000 107.000
51.26000 104.000
51.28000 109.000
51.30000 84.000
51.32000 100.000
51.34000 114.000
51.36000 92.000
51.38000 121.000
51.40000 120.000
51.42000 106.000
51.44000 131.000
51.46000 134.000
51.48000 154.000
51.50000 135.000
51.52000 148.000
51.54000 151.000
51.56000 153.000
51.58000 140.000
51.60000 138.000
51.62000 146.000
51.64000 129.000
51.66000 173.000
51.68000 140.000
51.70000 123.000
51.72000 170.000
51.74000 155.000
51.76000 174.000
51.78000 191.000
51.80000 201.000
51.82000 221.000
51.84000 251.000
51.86000 305.000
51.88000 310.000
51.90000 364.000
51.92000 476.000
51.94000 557.000
51.96000 723.000
51.98000 972.000
52.00000 1159.000
52.02000 1409.000
52.04000 1611.000
52.06000 1690.000
52.08000 1798.000
52.10000 1683.000
52.12000 1570.000
52.14000 1281.000
52.16000 1278.000
52.18000 1152.000
52.20000 1180.000
52.22000 1138.000
52.24000 885.000
52.26000 794.000
52.28000 634.000
52.30000 500.000
52.32000 396.000
52.34000 350.000
52.36000 285.000
52.38000 238.000
52.40000 226.000
52.42000 160.000
52.44000 191.000
52.46000 150.000
52.48000 125.000
52.50000 128.000
52.52000 122.000
52.54000 118.000
52.56000 125.000
52.58000 113.000
52.60000 112.000
52.62000 103.000
52.64000 113.000
52.66000 105.000
52.68000 101.000
52.70000 96.000
52.72000 95.000
52.74000 94.000
52.76000 90.000
52.78000 75.000
52.80000 105.000
52.82000 94.000
52.84000 83.000
52.86000 81.000
52.88000 96.000
52.90000 83.000
52.92000 85.000
52.94000 101.000
52.96000 102.000
52.98000 100.000
53.00000 93.000
53.02000 84.000
53.04000 103.000
53.06000 83.000
53.08000 70.000
53.10000 72.000
53.12000 88.000
53.14000 110.000
53.16000 69.000
53.18000 87.000
53.20000 81.000
53.22000 79.000
53.24000 82.000
53.26000 84.000
53.28000 97.000
53.30000 75.000
53.32000 75.000
53.34000 97.000
53.36000 81.000
53.38000 97.000
53.40000 77.000
53.42000 72.000
53.44000 84.000
53.46000 90.000
53.48000 91.000
53.50000 87.000
53.52000 80.000
53.54000 76.000
53.56000 81.000
53.58000 78.000
53.60000 92.000
53.62000 84.000
53.64000 85.000
53.66000 93.000
53.68000 97.000
53.70000 92.000
53.72000 74.000
53.74000 83.000
53.76000 92.000
53.78000 93.000
53.80000 82.000
53.82000 91.000
53.84000 91.000
53.86000 97.000
53.88000 92.000
53.90000 91.000
53.92000 106.000
53.94000 90.000
53.96000 115.000
53.98000 110.000
54.00000 115.000
54.02000 104.000
54.04000 124.000
54.06000 124.000
54.08000 144.000
54.10000 161.000
54.12000 168.000
54.14000 178.000
54.16000 192.000
54.18000 218.000
54.20000 214.000
54.22000 209.000
54.24000 225.000
54.26000 241.000
54.28000 205.000
54.30000 199.000
54.32000 225.000
54.34000 197.000
54.36000 205.000
54.38000 201.000
54.40000 179.000
54.42000 151.000
54.44000 158.000
54.46000 132.000
54.48000 137.000
54.50000 128.000
54.52000 121.000
54.54000 117.000
54.56000 109.000
54.58000 105.000
54.60000 109.000
54.62000 108.000
54.64000 112.000
54.66000 85.000
54.68000 118.000
54.70000 102.000
54.72000 100.000
54.74000 119.000
54.76000 104.000
54.78000 111.000
54.80000 91.000
54.82000 104.000
54.84000 94.000
54.86000 85.000
54.88000 97.000
54.90000 85.000
54.92000 102.000
54.94000 104.000
54.96000 85.000
54.98000 87.000
55.00000 88.000
55.02000 84.000
55.04000 99.000
55.06000 78.000
55.08000 93.000
55.10000 103.000
55.12000 90.000
55.14000 88.000
55.16000 67.000
55.18000 87.000
55.20000 79.000
55.22000 76.000
55.24000 86.000
55.26000 104.000
55.28000 76.000
55.30000 86.000
55.32000 74.000
55.34000 73.000
55.36000 68.000
55.38000 80.000
55.40000 86.000
55.42000 78.000
55.44000 78.000
55.46000 84.000
55.48000 80.000
55.50000 82.000
55.52000 92.000
55.54000 99.000
55.56000 67.000
55.58000 85.000
55.60000 101.000
55.62000 93.000
55.64000 89.000
55.66000 75.000
55.68000 68.000
55.70000 86.000
55.72000 83.000
55.74000 75.000
55.76000 77.000
55.78000 74.000
55.80000 78.000
55.82000 99.000
55.84000 72.000
55.86000 69.000
55.88000 103.000
55.90000 86.000
55.92000 88.000
55.94000 81.000
55.96000 69.000
55.98000 87.000
56.00000 71.000
56.02000 88.000
56.04000 85.000
56.06000 105.000
56.08000 85.000
56.10000 71.000
56.12000 80.000
56.14000 88.000
56.16000 91.000
56.18000 85.000
56.20000 87.000
56.22000 74.000
56.24000 74.000
56.26000 75.000
56.28000 83.000
56.30000 80.000
56.32000 75.000
56.34000 80.000
56.36000 78.000
56.38000 95.000
56.40000 78.000
56.42000 67.000
56.44000 79.000
56.46000 92.000
56.48000 95.000
56.50000 92.000
56.52000 84.000
56.54000 69.000
56.56000 99.000
56.58000 91.000
56.60000 98.000
56.62000 82.000
56.64000 113.000
56.66000 111.000
56.68000 114.000
56.70000 121.000
56.72000 115.000
56.74000 132.000
56.76000 128.000
56.78000 127.000
56.80000 147.000
56.82000 132.000
56.84000 150.000
56.86000 186.000
56.88000 178.000
56.90000 171.000
56.92000 172.000
56.94000 156.000
56.96000 143.000
56.98000 148.000
57.00000 139.000
57.02000 126.000
57.04000 134.000
57.06000 126.000
57.08000 104.000
57.10000 109.000
57.12000 95.000
57.14000 100.000
57.16000 83.000
57.18000 79.000
57.20000 87.000
57.22000 90.000
57.24000 82.000
57.26000 80.000
57.28000 86.000
57.30000 76.000
57.32000 76.000
57.34000 94.000
57.36000 84.000
57.38000 92.000
57.40000 87.000
57.42000 87.000
57.44000 103.000
57.46000 82.000
57.48000 95.000
57.50000 77.000
57.52000 80.000
57.54000 71.000
57.56000 88.000
57.58000 70.000
57.60000 84.000
57.62000 93.000
57.64000 90.000
57.66000 73.000
57.68000 73.000
57.70000 81.000
57.72000 78.000
57.74000 95.000
57.76000 82.000
57.78000 78.000
57.80000 90.000
57.82000 97.000
57.84000 111.000
57.86000 88.000
57.88000 83.000
57.90000 89.000
57.92000 89.000
57.94000 67.000
57.96000 91.000
57.98000 107.000
58.00000 72.000
58.02000 79.000
58.04000 70.000
58.06000 76.000
58.08000 83.000
58.10000 96.000
58.12000 95.000
58.14000 79.000
58.16000 82.000
58.18000 67.000
58.20000 65.000
58.22000 67.000
58.24000 90.000
58.26000 70.000
58.28000 73.000
58.30000 57.000
58.32000 76.000
58.34000 77.000
58.36000 79.000
58.38000 71.000
58.40000 84.000
58.42000 81.000
58.44000 93.000
58.46000 85.000
58.48000 81.000
58.50000 81.000
58.52000 97.000
58.54000 89.000
58.56000 68.000
58.58000 80.000
58.60000 78.000
58.62000 85.000
58.64000 69.000
58.66000 94.000
58.68000 77.000
58.70000 68.000
58.72000 68.000
58.74000 83.000
58.76000 72.000
58.78000 73.000
58.80000 66.000
58.82000 83.000
58.84000 67.000
58.86000 74.000
58.88000 79.000
58.90000 82.000
58.92000 78.000
58.94000 84.000
58.96000 90.000
58.98000 79.000
59.00000 87.000
59.02000 66.000
59.04000 85.000
59.06000 67.000
59.08000 63.000
59.10000 83.000
59.12000 77.000
59.14000 71.000
59.16000 71.000
59.18000 74.000
59.20000 76.000
59.22000 69.000
59.24000 69.000
59.26000 66.000
59.28000 72.000
59.30000 67.000
59.32000 69.000
59.34000 101.000
59.36000 72.000
59.38000 83.000
59.40000 82.000
59.42000 95.000
59.44000 78.000
59.46000 76.000
59.48000 77.000
59.50000 64.000
59.52000 92.000
59.54000 81.000
59.56000 75.000
59.58000 87.000
59.60000 74.000
59.62000 77.000
59.64000 73.000
59.66000 68.000
59.68000 63.000
59.70000 89.000
59.72000 58.000
59.74000 103.000
59.76000 86.000
59.78000 67.000
59.80000 64.000
59.82000 84.000
59.84000 65.000
59.86000 78.000
59.88000 59.000
59.90000 80.000
59.92000 79.000
59.94000 77.000
59.96000 69.000
