5.00000 4737.000
5.04000 4650.000
5.08000 4691.000
5.12000 4557.000
5.16000 4695.000
5.20000 4673.000
5.24000 4673.000
5.28000 4518.000
5.32000 4588.000
5.36000 4475.000
5.40000 4364.000
5.44000 4411.000
5.48000 4370.000
5.52000 4290.000
5.56000 4235.000
5.60000 4158.000
5.64000 4248.000
5.68000 4139.000
5.72000 4218.000
5.76000 4054.000
5.80000 4122.000
5.84000 4093.000
5.88000 4073.000
5.92000 4050.000
5.96000 3968.000
6.00000 3986.000
6.04000 3949.000
6.08000 3886.000
6.12000 3841.000
6.16000 3774.000
6.20000 3708.000
6.24000 3786.000
6.28000 3781.000
6.32000 3739.000
6.36000 3643.000
6.40000 3594.000
6.44000 3691.000
6.48000 3579.000
6.52000 3624.000
6.56000 3543.000
6.60000 3521.000
6.64000 3512.000
6.68000 3501.000
6.72000 3416.000
6.76000 3454.000
6.80000 3356.000
6.84000 3495.000
6.88000 3378.000
6.92000 3421.000
6.96000 3410.000
7.00000 3241.000
7.04000 3324.000
7.08000 3252.000
7.12000 3365.000
7.16000 3257.000
7.20000 3251.000
7.24000 3188.000
7.28000 3195.000
7.32000 3090.000
7.36000 3186.000
7.40000 3164.000
7.44000 3210.000
7.48000 3070.000
7.52000 3168.000
7.56000 3022.000
7.60000 3019.000
7.64000 3066.000
7.68000 2968.000
7.72000 3025.000
7.76000 3035.000
7.80000 2963.000
7.84000 3001.000
7.88000 3000.000
7.92000 2896.000
7.96000 3030.000
8.00000 2966.000
8.04000 2916.000
8.08000 2929.000
8.12000 3172.000
8.16000 3499.000
8.20000 4051.000
8.24000 4469.000
8.28000 4815.000
8.32000 5208.000
8.36000 5576.000
8.40000 5745.000
8.44000 5541.000
8.48000 5157.000
8.52000 4736.000
8.56000 4354.000
8.60000 3888.000
8.64000 3538.000
8.68000 3153.000
8.72000 3202.000
8.76000 3133.000
8.80000 3146.000
8.84000 3203.000
8.88000 3328.000
8.92000 3576.000
8.96000 3794.000
9.00000 4304.000
9.04000 5510.000
9.08000 7261.000
9.12000 9464.000
9.16000 10923.000
9.20000 11869.000
9.24000 12748.000
9.28000 13062.000
9.32000 12484.000
9.36000 11700.000
9.40000 10365.000
9.44000 8983.000
9.48000 7326.000
9.52000 5974.000
9.56000 4884.000
9.60000 4072.000
9.64000 3465.000
9.68000 3315.000
9.72000 3038.000
9.76000 2920.000
9.80000 2796.000
9.84000 2667.000
9.88000 2634.000
9.92000 2602.000
9.96000 2593.000
10.00000 2449.000
10.04000 2517.000
10.08000 2495.000
10.12000 2417.000
10.16000 2329.000
10.20000 2482.000
10.24000 2351.000
10.28000 2364.000
10.32000 2351.000
10.36000 2389.000
10.40000 2316.000
10.44000 2401.000
10.48000 2359.000
10.52000 2301.000
10.56000 2375.000
10.60000 2426.000
10.64000 2377.000
10.68000 2438.000
10.72000 2485.000
10.76000 2737.000
10.80000 2863.000
10.84000 3236.000
10.88000 3761.000
10.92000 4147.000
10.96000 4366.000
11.00000 4710.000
11.04000 4679.000
11.08000 4528.000
11.12000 4330.000
11.16000 3990.000
11.20000 3685.000
11.24000 3180.000
11.28000 2771.000
11.32000 2456.000
11.36000 2303.000
11.40000 2113.000
11.44000 2233.000
11.48000 2170.000
11.52000 2150.000
11.56000 2213.000
11.60000 2169.000
11.64000 2161.000
11.68000 2213.000
11.72000 2138.000
11.76000 2223.000
11.80000 2210.000
11.84000 2310.000
11.88000 2235.000
11.92000 2307.000
11.96000 2330.000
12.00000 2379.000
12.04000 2387.000
12.08000 2433.000
12.12000 2538.000
12.16000 2525.000
12.20000 2593.000
12.24000 2521.000
12.28000 2551.000
12.32000 2584.000
12.36000 2623.000
12.40000 2530.000
12.44000 2518.000
12.48000 2608.000
12.52000 2640.000
12.56000 2546.000
12.60000 2537.000
12.64000 2653.000
12.68000 2684.000
12.72000 2779.000
12.76000 2715.000
12.80000 2709.000
12.84000 2821.000
12.88000 2770.000
12.92000 2793.000
12.96000 2774.000
13.00000 2850.000
13.04000 2972.000
13.08000 2968.000
13.12000 2868.000
13.16000 2998.000
13.20000 3319.000
13.24000 3289.000
13.28000 3599.000
13.32000 3902.000
13.36000 4209.000
13.40000 4550.000
13.44000 5098.000
13.48000 5955.000
13.52000 7060.000
13.56000 8683.000
13.60000 11079.000
13.64000 15264.000
13.68000 22242.000
13.72000 33864.000
13.76000 50763.000
13.80000 73916.000
13.84000 94835.000
13.88000 107920.000
13.92000 112183.000
13.96000 109269.000
14.00000 100978.000
14.04000 88039.000
14.08000 72767.000
14.12000 55615.000
14.16000 40389.000
14.20000 26886.000
14.24000 16856.000
14.28000 10625.000
14.32000 7577.000
14.36000 5798.000
14.40000 5046.000
14.44000 4113.000
14.48000 3722.000
14.52000 3397.000
14.56000 3221.000
14.60000 3020.000
14.64000 2868.000
14.68000 2756.000
14.72000 2665.000
14.76000 2542.000
14.80000 2544.000
14.84000 2436.000
14.88000 2371.000
14.92000 2370.000
14.96000 2253.000
15.00000 2275.000
15.04000 2198.000
15.08000 2164.000
15.12000 2148.000
15.16000 2123.000
15.20000 2130.000
15.24000 2073.000
15.28000 2176.000
15.32000 2065.000
15.36000 2071.000
15.40000 1965.000
15.44000 1988.000
15.48000 1936.000
15.52000 1950.000
15.56000 1905.000
15.60000 1954.000
15.64000 1905.000
15.68000 1958.000
15.72000 1905.000
15.76000 1910.000
15.80000 1872.000
15.84000 1891.000
15.88000 1927.000
15.92000 1962.000
15.96000 1922.000
16.00000 2024.000
16.04000 1925.000
16.08000 1974.000
16.12000 1979.000
16.16000 2024.000
16.20000 2039.000
16.24000 2070.000
16.28000 2065.000
16.32000 2089.000
16.36000 2103.000
16.40000 2176.000
16.44000 2317.000
16.48000 2502.000
16.52000 2695.000
16.56000 3189.000
16.60000 3893.000
16.64000 5378.000
16.68000 7614.000
16.72000 10605.000
16.76000 13826.000
16.80000 16346.000
16.84000 18531.000
16.88000 18930.000
16.92000 18255.000
16.96000 16413.000
17.00000 13778.000
17.04000 10785.000
17.08000 8271.000
17.12000 5715.000
17.16000 3916.000
17.20000 2827.000
17.24000 2381.000
17.28000 2191.000
17.32000 2102.000
17.36000 2110.000
17.40000 2048.000
17.44000 2094.000
17.48000 1985.000
17.52000 2006.000
17.56000 1948.000
17.60000 2029.000
17.64000 1953.000
17.68000 1980.000
17.72000 1992.000
17.76000 1975.000
17.80000 1968.000
17.84000 1925.000
17.88000 2036.000
17.92000 1933.000
17.96000 1911.000
18.00000 2004.000
18.04000 1872.000
18.08000 2027.000
18.12000 2044.000
18.16000 2014.000
18.20000 2086.000
18.24000 2104.000
18.28000 2040.000
18.32000 2102.000
18.36000 2230.000
18.40000 2435.000
18.44000 2660.000
18.48000 3279.000
18.52000 3998.000
18.56000 4767.000
18.60000 5252.000
18.64000 5488.000
18.68000 5476.000
18.72000 5267.000
18.76000 4877.000
18.80000 4353.000
18.84000 3925.000
18.88000 2983.000
18.92000 2851.000
18.96000 2475.000
19.00000 2370.000
19.04000 2327.000
19.08000 2170.000
19.12000 2181.000
19.16000 2271.000
19.20000 2120.000
19.24000 2138.000
19.28000 2200.000
19.32000 2176.000
19.36000 2213.000
19.40000 2240.000
19.44000 2165.000
19.48000 2203.000
19.52000 2137.000
19.56000 2127.000
19.60000 2144.000
19.64000 2171.000
19.68000 2134.000
19.72000 2184.000
19.76000 2245.000
19.80000 2284.000
19.84000 2125.000
19.88000 2157.000
19.92000 2265.000
19.96000 2231.000
20.00000 2238.000
20.04000 2269.000
20.08000 2294.000
20.12000 2274.000
20.16000 2278.000
20.20000 2268.000
20.24000 2311.000
20.28000 2323.000
20.32000 2284.000
20.36000 2353.000
20.40000 2317.000
20.44000 2302.000
20.48000 2344.000
20.52000 2272.000
20.56000 2363.000
20.60000 2442.000
20.64000 2372.000
20.68000 2407.000
20.72000 2492.000
20.76000 2408.000
20.80000 2547.000
20.84000 2466.000
20.88000 2537.000
20.92000 2541.000
20.96000 2565.000
21.00000 2600.000
21.04000 2631.000
21.08000 2740.000
21.12000 2669.000
21.16000 2561.000
21.20000 2629.000
21.24000 2620.000
21.28000 2547.000
21.32000 2619.000
21.36000 2510.000
21.40000 2610.000
21.44000 2509.000
21.48000 2587.000
21.52000 2527.000
21.56000 2527.000
21.60000 2505.000
21.64000 2646.000
21.68000 2698.000
21.72000 2515.000
21.76000 2662.000
21.80000 2687.000
21.84000 2666.000
21.88000 2654.000
21.92000 2648.000
21.96000 2593.000
22.00000 2660.000
22.04000 2715.000
22.08000 2741.000
22.12000 2851.000
22.16000 2849.000
22.20000 2911.000
22.24000 2929.000
22.28000 3018.000
22.32000 3027.000
22.36000 3062.000
22.40000 3025.000
22.44000 3011.000
22.48000 3093.000
22.52000 3032.000
22.56000 3151.000
22.60000 3111.000
22.64000 3217.000
22.68000 3282.000
22.72000 3355.000
22.76000 3342.000
22.80000 3537.000
22.84000 3715.000
22.88000 3858.000
22.92000 4171.000
22.96000 4357.000
23.00000 4619.000
23.04000 5321.000
23.08000 6293.000
23.12000 7555.000
23.16000 9915.000
23.20000 14373.000
23.24000 21174.000
23.28000 31003.000
23.32000 40182.000
23.36000 47626.000
23.40000 51763.000
23.44000 52995.000
23.48000 51274.000
23.52000 46998.000
23.56000 41414.000
23.60000 34592.000
23.64000 27183.000
23.68000 20360.000
23.72000 14985.000
23.76000 10770.000
23.80000 8225.000
23.84000 6410.000
23.88000 5479.000
23.92000 4685.000
23.96000 4265.000
24.00000 3919.000
24.04000 3681.000
24.08000 3605.000
24.12000 3472.000
24.16000 3486.000
24.20000 3433.000
24.24000 3361.000
24.28000 3446.000
24.32000 3329.000
24.36000 3320.000
24.40000 3340.000
24.44000 3430.000
24.48000 3334.000
24.52000 3240.000
24.56000 3403.000
24.60000 3432.000
24.64000 3505.000
24.68000 3322.000
24.72000 3404.000
24.76000 3655.000
24.80000 3534.000
24.84000 3636.000
24.88000 3782.000
24.92000 3917.000
24.96000 4213.000
25.00000 4495.000
25.04000 4986.000
25.08000 5779.000
25.12000 6723.000
25.16000 8188.000
25.20000 10367.000
25.24000 14034.000
25.28000 20282.000
25.32000 28192.000
25.36000 36584.000
25.40000 43977.000
25.44000 48957.000
25.48000 51144.000
25.52000 49284.000
25.56000 44179.000
25.60000 36965.000
25.64000 29564.000
25.68000 21645.000
25.72000 15002.000
25.76000 9626.000
25.80000 6563.000
25.84000 5113.000
25.88000 4445.000
25.92000 4260.000
25.96000 4362.000
26.00000 4678.000
26.04000 5105.000
26.08000 5720.000
26.12000 6257.000
26.16000 6254.000
26.20000 6399.000
26.24000 6049.000
26.28000 5795.000
26.32000 5198.000
26.36000 4767.000
26.40000 4405.000
26.44000 3754.000
26.48000 3526.000
26.52000 3255.000
26.56000 3102.000
26.60000 3044.000
26.64000 3086.000
26.68000 3087.000
26.72000 3155.000
26.76000 2963.000
26.80000 3220.000
26.84000 3177.000
26.88000 3184.000
26.92000 3331.000
26.96000 3236.000
27.00000 3261.000
27.04000 3337.000
27.08000 3398.000
27.12000 3431.000
27.16000 3551.000
27.20000 3594.000
27.24000 3696.000
27.28000 3870.000
27.32000 4101.000
27.36000 4002.000
27.40000 4077.000
27.44000 4228.000
27.48000 4246.000
27.52000 4324.000
27.56000 4328.000
27.60000 4558.000
27.64000 4737.000
27.68000 4806.000
27.72000 5270.000
27.76000 5818.000
27.80000 6831.000
27.84000 7846.000
27.88000 9620.000
27.92000 12376.000
27.96000 17143.000
28.00000 23976.000
28.04000 33114.000
28.08000 44099.000
28.12000 53673.000
28.16000 59667.000
28.20000 62166.000
28.24000 61357.000
28.28000 57334.000
28.32000 50366.000
28.36000 43011.000
28.40000 35383.000
28.44000 27632.000
28.48000 20735.000
28.52000 14906.000
28.56000 11138.000
28.60000 8862.000
28.64000 7269.000
28.68000 6030.000
28.72000 5397.000
28.76000 4906.000
28.80000 4454.000
28.84000 4169.000
28.88000 3940.000
28.92000 3766.000
28.96000 3593.000
29.00000 3468.000
29.04000 3303.000
29.08000 3285.000
29.12000 3301.000
29.16000 3498.000
29.20000 3383.000
29.24000 3316.000
29.28000 3398.000
29.32000 3327.000
29.36000 3399.000
29.40000 3458.000
29.44000 3258.000
29.48000 3437.000
29.52000 3177.000
29.56000 3219.000
29.60000 3204.000
29.64000 3249.000
29.68000 3283.000
29.72000 3324.000
29.76000 3178.000
29.80000 3122.000
29.84000 3132.000
29.88000 3093.000
29.92000 2966.000
29.96000 2902.000
30.00000 2853.000
30.04000 2853.000
30.08000 2931.000
30.12000 2830.000
30.16000 2709.000
30.20000 2721.000
30.24000 2693.000
30.28000 2863.000
30.32000 2681.000
30.36000 2751.000
30.40000 2766.000
30.44000 2781.000
30.48000 2740.000
30.52000 2860.000
30.56000 2811.000
30.60000 2916.000
30.64000 2970.000
30.68000 2874.000
30.72000 2844.000
30.76000 2917.000
30.80000 2827.000
30.84000 2845.000
30.88000 2808.000
30.92000 2652.000
30.96000 2657.000
31.00000 2780.000
31.04000 2711.000
31.08000 2717.000
31.12000 2750.000
31.16000 2717.000
31.20000 2744.000
31.24000 2691.000
31.28000 2865.000
31.32000 2773.000
31.36000 2749.000
31.40000 2921.000
31.44000 2986.000
31.48000 3142.000
31.52000 2993.000
31.56000 3141.000
31.60000 3233.000
31.64000 3322.000
31.68000 3273.000
31.72000 3199.000
31.76000 3382.000
31.80000 3363.000
31.84000 3563.000
31.88000 3534.000
31.92000 3455.000
31.96000 3734.000
32.00000 3737.000
32.04000 3855.000
32.08000 3983.000
32.12000 4017.000
32.16000 4182.000
32.20000 4271.000
32.24000 4436.000
32.28000 4512.000
32.32000 4715.000
32.36000 5051.000
32.40000 5434.000
32.44000 5764.000
32.48000 6184.000
32.52000 7165.000
32.56000 8194.000
32.60000 9606.000
32.64000 11663.000
32.68000 15128.000
32.72000 20640.000
32.76000 28913.000
32.80000 41683.000
32.84000 60817.000
32.88000 87152.000
32.92000 115803.000
32.96000 139477.000
33.00000 153376.000
33.04000 157874.000
33.08000 151324.000
33.12000 137754.000
33.16000 117824.000
33.20000 97414.000
33.24000 70315.000
33.28000 50628.000
33.32000 38578.000
33.36000 26905.000
33.40000 18561.000
33.44000 13021.000
33.48000 9953.000
33.52000 8050.000
33.56000 6819.000
33.60000 5983.000
33.64000 5424.000
33.68000 4783.000
33.72000 4525.000
33.76000 4057.000
33.80000 3901.000
33.84000 3651.000
33.88000 3648.000
33.92000 3500.000
33.96000 3348.000
34.00000 3406.000
34.04000 3482.000
34.08000 3500.000
34.12000 3585.000
34.16000 3477.000
34.20000 3382.000
34.24000 3281.000
34.28000 3135.000
34.32000 2927.000
34.36000 2859.000
34.40000 2714.000
34.44000 2737.000
34.48000 2384.000
34.52000 2327.000
34.56000 2334.000
34.60000 2243.000
34.64000 2253.000
34.68000 2212.000
34.72000 2159.000
34.76000 2106.000
34.80000 2183.000
34.84000 2150.000
34.88000 2184.000
34.92000 1994.000
34.96000 2045.000
35.00000 2011.000
35.04000 2062.000
35.08000 2007.000
35.12000 2016.000
35.16000 2065.000
35.20000 2062.000
35.24000 2077.000
35.28000 2023.000
35.32000 2005.000
35.36000 2039.000
35.40000 1986.000
35.44000 2038.000
35.48000 1958.000
35.52000 2011.000
35.56000 2055.000
35.60000 1969.000
35.64000 2064.000
35.68000 1975.000
35.72000 1980.000
35.76000 2024.000
35.80000 1959.000
35.84000 2047.000
35.88000 2003.000
35.92000 1953.000
35.96000 1998.000
36.00000 2018.000
36.04000 2148.000
36.08000 2147.000
36.12000 2268.000
36.16000 2210.000
36.20000 2380.000
36.24000 2425.000
36.28000 2374.000
36.32000 2534.000
36.36000 2541.000
36.40000 2603.000
36.44000 2600.000
36.48000 2673.000
36.52000 2688.000
36.56000 2636.000
36.60000 2623.000
36.64000 2683.000
36.68000 2688.000
36.72000 2859.000
36.76000 2805.000
36.80000 2918.000
36.84000 2988.000
36.88000 2882.000
36.92000 3014.000
36.96000 3076.000
37.00000 3084.000
37.04000 3187.000
37.08000 3274.000
37.12000 3273.000
37.16000 3627.000
37.20000 3658.000
37.24000 3791.000
37.28000 3942.000
37.32000 4239.000
37.36000 4519.000
37.40000 5114.000
37.44000 5679.000
37.48000 6362.000
37.52000 7643.000
37.56000 9906.000
37.60000 13206.000
37.64000 18849.000
37.68000 27874.000
37.72000 43892.000
37.76000 69200.000
37.80000 104633.000
37.84000 143016.000
37.88000 172048.300
37.92000 188893.800
37.96000 196033.400
38.00000 184180.800
38.04000 168548.600
38.08000 139990.500
38.12000 119505.200
38.16000 90872.000
38.20000 65812.000
38.24000 44307.000
38.28000 28840.000
38.32000 18365.000
38.36000 12006.000
38.40000 8336.000
38.44000 6249.000
38.48000 4988.000
38.52000 4320.000
38.56000 3807.000
38.60000 3341.000
38.64000 3079.000
38.68000 2967.000
38.72000 2680.000
38.76000 2621.000
38.80000 2405.000
38.84000 2395.000
38.88000 2235.000
38.92000 2266.000
38.96000 2137.000
39.00000 2174.000
39.04000 2174.000
39.08000 2048.000
39.12000 1973.000
39.16000 2039.000
39.20000 1951.000
39.24000 1943.000
39.28000 1941.000
39.32000 1867.000
39.36000 1829.000
39.40000 1769.000
39.44000 1741.000
39.48000 1767.000
39.52000 1726.000
39.56000 1750.000
39.60000 1693.000
39.64000 1677.000
39.68000 1735.000
39.72000 1690.000
39.76000 1541.000
39.80000 1645.000
39.84000 1713.000
39.88000 1727.000
39.92000 1767.000
39.96000 1820.000
40.00000 1816.000
40.04000 1791.000
40.08000 1805.000
40.12000 1676.000
40.16000 1686.000
40.20000 1568.000
40.24000 1569.000
40.28000 1513.000
40.32000 1516.000
40.36000 1475.000
40.40000 1526.000
40.44000 1520.000
40.48000 1593.000
40.52000 1464.000
40.56000 1475.000
40.60000 1589.000
40.64000 1560.000
40.68000 1661.000
40.72000 1679.000
40.76000 1698.000
40.80000 1859.000
40.84000 1798.000
40.88000 1851.000
40.92000 1768.000
40.96000 1639.000
41.00000 1613.000
41.04000 1644.000
41.08000 1557.000
41.12000 1578.000
41.16000 1529.000
41.20000 1537.000
41.24000 1548.000
41.28000 1523.000
41.32000 1475.000
41.36000 1459.000
41.40000 1544.000
41.44000 1518.000
41.48000 1532.000
41.52000 1625.000
41.56000 1546.000
41.60000 1569.000
41.64000 1562.000
41.68000 1568.000
41.72000 1593.000
41.76000 1523.000
41.80000 1529.000
41.84000 1455.000
41.88000 1569.000
41.92000 1499.000
41.96000 1385.000
42.00000 1498.000
42.04000 1521.000
42.08000 1500.000
42.12000 1601.000
42.16000 1527.000
42.20000 1593.000
42.24000 1551.000
42.28000 1649.000
42.32000 1679.000
42.36000 1633.000
42.40000 1666.000
42.44000 1758.000
42.48000 1853.000
42.52000 1962.000
42.56000 2107.000
42.60000 2302.000
42.64000 2552.000
42.68000 2952.000
42.72000 3479.000
42.76000 4773.000
42.80000 5652.000
42.84000 6707.000
42.88000 7790.000
42.92000 8352.000
42.96000 8952.000
43.00000 9088.000
43.04000 9214.000
43.08000 8872.000
43.12000 8467.000
43.16000 8045.000
43.20000 7197.000
43.24000 6388.000
43.28000 5577.000
43.32000 4827.000
43.36000 4043.000
43.40000 3297.000
43.44000 2725.000
43.48000 2232.000
43.52000 2029.000
43.56000 1796.000
43.60000 1561.000
43.64000 1539.000
43.68000 1542.000
43.72000 1510.000
43.76000 1589.000
43.80000 1506.000
43.84000 1546.000
43.88000 1472.000
43.92000 1534.000
43.96000 1546.000
44.00000 1415.000
44.04000 1488.000
44.08000 1505.000
44.12000 1437.000
44.16000 1511.000
44.20000 1416.000
44.24000 1336.000
44.28000 1352.000
44.32000 1384.000
44.36000 1343.000
44.40000 1276.000
44.44000 1324.000
44.48000 1359.000
44.52000 1380.000
44.56000 1324.000
44.60000 1307.000
44.64000 1377.000
44.68000 1342.000
44.72000 1424.000
44.76000 1336.000
44.80000 1409.000
44.84000 1359.000
44.88000 1397.000
44.92000 1336.000
44.96000 1371.000
45.00000 1396.000
45.04000 1371.000
45.08000 1380.000
45.12000 1331.000
45.16000 1312.000
45.20000 1365.000
45.24000 1383.000
45.28000 1413.000
45.32000 1440.000
45.36000 1480.000
45.40000 1579.000
45.44000 1599.000
45.48000 1603.000
45.52000 1637.000
45.56000 1612.000
45.60000 1557.000
45.64000 1469.000
45.68000 1498.000
45.72000 1462.000
45.76000 1410.000
45.80000 1395.000
45.84000 1262.000
45.88000 1265.000
45.92000 1339.000
45.96000 1218.000
46.00000 1279.000
46.04000 1213.000
46.08000 1287.000
46.12000 1242.000
46.16000 1241.000
46.20000 1314.000
46.24000 1325.000
46.28000 1317.000
46.32000 1265.000
46.36000 1270.000
46.40000 1277.000
46.44000 1216.000
46.48000 1297.000
46.52000 1268.000
46.56000 1257.000
46.60000 1261.000
46.64000 1209.000
46.68000 1263.000
46.72000 1250.000
46.76000 1257.000
46.80000 1319.000
46.84000 1239.000
46.88000 1203.000
46.92000 1270.000
46.96000 1361.000
47.00000 1309.000
47.04000 1230.000
47.08000 1250.000
47.12000 1247.000
47.16000 1235.000
47.20000 1275.000
47.24000 1278.000
47.28000 1238.000
47.32000 1230.000
47.36000 1208.000
47.40000 1270.000
47.44000 1316.000
47.48000 1272.000
47.52000 1340.000
47.56000 1401.000
47.60000 1442.000
47.64000 1579.000
47.68000 1617.000
47.72000 1691.000
47.76000 1966.000
47.80000 2140.000
47.84000 2567.000
47.88000 2857.000
47.92000 3126.000
47.96000 3209.000
48.00000 3320.000
48.04000 3503.000
48.08000 3267.000
48.12000 3073.000
48.16000 2815.000
48.20000 2603.000
48.24000 2326.000
48.28000 2071.000
48.32000 1800.000
48.36000 1799.000
48.40000 1583.000
48.44000 1550.000
48.48000 1442.000
48.52000 1400.000
48.56000 1302.000
48.60000 1294.000
48.64000 1323.000
48.68000 1264.000
48.72000 1221.000
48.76000 1195.000
48.80000 1192.000
48.84000 1149.000
48.88000 1169.000
48.92000 1191.000
48.96000 1229.000
49.00000 1282.000
49.04000 1125.000
49.08000 1177.000
49.12000 1172.000
49.16000 1181.000
49.20000 1239.000
49.24000 1194.000
49.28000 1158.000
49.32000 1215.000
49.36000 1177.000
49.40000 1256.000
49.44000 1187.000
49.48000 1169.000
49.52000 1168.000
49.56000 1178.000
49.60000 1207.000
49.64000 1265.000
49.68000 1164.000
49.72000 1224.000
49.76000 1203.000
49.80000 1214.000
49.84000 1211.000
49.88000 1220.000
49.92000 1231.000
49.96000 1139.000
50.00000 1174.000
50.04000 1175.000
50.08000 1202.000
50.12000 1178.000
50.16000 1199.000
50.20000 1193.000
50.24000 1188.000
50.28000 1228.000
50.32000 1137.000
50.36000 1138.000
50.40000 1186.000
50.44000 1214.000
50.48000 1208.000
50.52000 1198.000
50.56000 1185.000
50.60000 1208.000
50.64000 1232.000
50.68000 1242.000
50.72000 1189.000
50.76000 1153.000
50.80000 1197.000
50.84000 1259.000
50.88000 1261.000
50.92000 1263.000
50.96000 1212.000
51.00000 1191.000
51.04000 1208.000
51.08000 1270.000
51.12000 1251.000
51.16000 1234.000
51.20000 1236.000
51.24000 1264.000
51.28000 1275.000
51.32000 1251.000
51.36000 1238.000
51.40000 1241.000
51.44000 1304.000
51.48000 1274.000
51.52000 1284.000
51.56000 1243.000
51.60000 1303.000
51.64000 1320.000
51.68000 1326.000
51.72000 1366.000
51.76000 1442.000
51.80000 1475.000
51.84000 1526.000
51.88000 1511.000
51.92000 1646.000
51.96000 1623.000
52.00000 1685.000
52.04000 1703.000
52.08000 1697.000
52.12000 1888.000
52.16000 2147.000
52.20000 2371.000
52.24000 2951.000
52.28000 3500.000
52.32000 4138.000
52.36000 4617.000
52.40000 4902.000
52.44000 5427.000
52.48000 5298.000
52.52000 5095.000
52.56000 4968.000
52.60000 4365.000
52.64000 4095.000
52.68000 3857.000
52.72000 3693.000
52.76000 3877.000
52.80000 4127.000
52.84000 4983.000
52.88000 6030.000
52.92000 7616.000
52.96000 9943.000
53.00000 12821.000
53.04000 15499.000
53.08000 17450.000
53.12000 18842.000
53.16000 19150.000
53.20000 18852.000
53.24000 17869.000
53.28000 16079.000
53.32000 13851.000
53.36000 11781.000
53.40000 9492.000
53.44000 7560.000
53.48000 6093.000
53.52000 4615.000
53.56000 3685.000
53.60000 3013.000
53.64000 2451.000
53.68000 2123.000
53.72000 1984.000
53.76000 1844.000
53.80000 1728.000
53.84000 1697.000
53.88000 1545.000
53.92000 1561.000
53.96000 1480.000
54.00000 1469.000
54.04000 1323.000
54.08000 1344.000
54.12000 1338.000
54.16000 1309.000
54.20000 1318.000
54.24000 1299.000
54.28000 1237.000
54.32000 1227.000
54.36000 1184.000
54.40000 1195.000
54.44000 1258.000
54.48000 1199.000
54.52000 1226.000
54.56000 1264.000
54.60000 1263.000
54.64000 1164.000
54.68000 1214.000
54.72000 1158.000
54.76000 1173.000
54.80000 1232.000
54.84000 1172.000
54.88000 1222.000
54.92000 1155.000
54.96000 1120.000
55.00000 1179.000
55.04000 1108.000
55.08000 1166.000
55.12000 1117.000
55.16000 1132.000
55.20000 1134.000
55.24000 1173.000
55.28000 1151.000
55.32000 1048.000
55.36000 1068.000
55.40000 1081.000
55.44000 1142.000
55.48000 1122.000
55.52000 1125.000
55.56000 1099.000
55.60000 1152.000
55.64000 1128.000
55.68000 1165.000
55.72000 1126.000
55.76000 1102.000
55.80000 1122.000
55.84000 1128.000
55.88000 1079.000
55.92000 1095.000
55.96000 1086.000
56.00000 1103.000
56.04000 1144.000
56.08000 1046.000
56.12000 1146.000
56.16000 1102.000
56.20000 1070.000
56.24000 1009.000
56.28000 1074.000
56.32000 1064.000
56.36000 1149.000
56.40000 1112.000
56.44000 1107.000
56.48000 1124.000
56.52000 1157.000
56.56000 1099.000
56.60000 1077.000
56.64000 1082.000
56.68000 1130.000
56.72000 1095.000
56.76000 1158.000
56.80000 1113.000
56.84000 1144.000
56.88000 1163.000
56.92000 1167.000
56.96000 1058.000
57.00000 1109.000
57.04000 1177.000
57.08000 1051.000
57.12000 1093.000
57.16000 1187.000
57.20000 1119.000
57.24000 1181.000
57.28000 1155.000
57.32000 1151.000
57.36000 1087.000
57.40000 1131.000
57.44000 1248.000
57.48000 1266.000
57.52000 1241.000
57.56000 1274.000
57.60000 1346.000
57.64000 1251.000
57.68000 1320.000
57.72000 1329.000
57.76000 1259.000
57.80000 1234.000
57.84000 1264.000
57.88000 1307.000
57.92000 1228.000
57.96000 1271.000
58.00000 1242.000
58.04000 1344.000
58.08000 1381.000
58.12000 1418.000
58.16000 1644.000
58.20000 1884.000
58.24000 2266.000
58.28000 2706.000
58.32000 3222.000
58.36000 3534.000
58.40000 3917.000
58.44000 3940.000
58.48000 4048.000
58.52000 3773.000
58.56000 3659.000
58.60000 3291.000
58.64000 2995.000
58.68000 2628.000
58.72000 2266.000
58.76000 1996.000
58.80000 1735.000
58.84000 1520.000
58.88000 1427.000
58.92000 1267.000
58.96000 1248.000
59.00000 1225.000
59.04000 1263.000
59.08000 1168.000
59.12000 1146.000
59.16000 1160.000
59.20000 1130.000
59.24000 1117.000
59.28000 1042.000
59.32000 1128.000
59.36000 1093.000
59.40000 1091.000
59.44000 1061.000
59.48000 1039.000
59.52000 1119.000
59.56000 1070.000
59.60000 1143.000
59.64000 1090.000
59.68000 1113.000
59.72000 1144.000
59.76000 1102.000
59.80000 1128.000
59.84000 1145.000
59.88000 1179.000
59.92000 1094.000
59.96000 1174.000
60.00000 1108.000
60.04000 1138.000
60.08000 1092.000
60.12000 1147.000
60.16000 1107.000
60.20000 1161.000
60.24000 1122.000
60.28000 1104.000
60.32000 1033.000
60.36000 1057.000
60.40000 1136.000
60.44000 1109.000
60.48000 1095.000
60.52000 1082.000
60.56000 1106.000
60.60000 1126.000
60.64000 1057.000
60.68000 1083.000
60.72000 1106.000
60.76000 1145.000
60.80000 1054.000
60.84000 1076.000
60.88000 1073.000
60.92000 1006.000
60.96000 1098.000
61.00000 1083.000
61.04000 1104.000
61.08000 1132.000
61.12000 1123.000
61.16000 1129.000
61.20000 1096.000
61.24000 1025.000
61.28000 1071.000
61.32000 1110.000
61.36000 1088.000
61.40000 1086.000
61.44000 1172.000
61.48000 1049.000
61.52000 1071.000
61.56000 1095.000
61.60000 1079.000
61.64000 1144.000
61.68000 1131.000
61.72000 1126.000
61.76000 1158.000
61.80000 1251.000
61.84000 1276.000
61.88000 1343.000
61.92000 1425.000
61.96000 1402.000
62.00000 1490.000
62.04000 1540.000
62.08000 1567.000
62.12000 1466.000
62.16000 1507.000
62.20000 1567.000
62.24000 1390.000
62.28000 1347.000
62.32000 1377.000
62.36000 1246.000
62.40000 1203.000
62.44000 1169.000
62.48000 1132.000
62.52000 1133.000
62.56000 1106.000
62.60000 1111.000
62.64000 1100.000
62.68000 1147.000
62.72000 1092.000
62.76000 1089.000
62.80000 1057.000
62.84000 1081.000
62.88000 1056.000
62.92000 1092.000
62.96000 1081.000
63.00000 1036.000
63.04000 1067.000
63.08000 1104.000
63.12000 1102.000
63.16000 1100.000
63.20000 1058.000
63.24000 1105.000
63.28000 1113.000
63.32000 1163.000
63.36000 1093.000
63.40000 1127.000
63.44000 1140.000
63.48000 1182.000
63.52000 1186.000
63.56000 1213.000
63.60000 1334.000
63.64000 1371.000
63.68000 1428.000
63.72000 1731.000
63.76000 1764.000
63.80000 1988.000
63.84000 2048.000
63.88000 2084.000
63.92000 2075.000
63.96000 2120.000
64.00000 1981.000
64.04000 1922.000
64.08000 1833.000
64.12000 1750.000
64.16000 1561.000
64.20000 1527.000
64.24000 1329.000
64.28000 1241.000
64.32000 1235.000
64.36000 1149.000
64.40000 1222.000
64.44000 1122.000
64.48000 1047.000
64.52000 1102.000
64.56000 1062.000
64.60000 1003.000
64.64000 1032.000
64.68000 1100.000
64.72000 1022.000
64.76000 1032.000
64.80000 1058.000
64.84000 1061.000
64.88000 1050.000
64.92000 1030.000
64.96000 1008.000
65.00000 1051.000
65.04000 1104.000
65.08000 1060.000
65.12000 1097.000
65.16000 1007.000
65.20000 1027.000
65.24000 1060.000
65.28000 1052.000
65.32000 1097.000
65.36000 1061.000
65.40000 1050.000
65.44000 1030.000
65.48000 1014.000
65.52000 1036.000
65.56000 1057.000
65.60000 974.000
65.64000 1009.000
65.68000 1050.000
65.72000 1034.000
65.76000 1011.000
65.80000 1036.000
65.84000 941.000
65.88000 1023.000
65.92000 1005.000
65.96000 1017.000
66.00000 1028.000
66.04000 1051.000
66.08000 993.000
66.12000 1029.000
66.16000 1022.000
66.20000 1092.000
66.24000 1004.000
66.28000 1005.000
66.32000 1031.000
66.36000 1047.000
66.40000 955.000
66.44000 955.000
66.48000 1039.000
66.52000 1070.000
66.56000 970.000
66.60000 981.000
66.64000 1046.000
66.68000 1009.000
66.72000 1060.000
66.76000 1047.000
66.80000 1067.000
66.84000 1039.000
66.88000 1025.000
66.92000 1034.000
66.96000 1036.000
67.00000 987.000
67.04000 960.000
67.08000 1022.000
67.12000 1114.000
67.16000 1083.000
67.20000 999.000
67.24000 991.000
67.28000 996.000
67.32000 996.000
67.36000 996.000
67.40000 990.000
67.44000 1006.000
67.48000 970.000
67.52000 983.000
67.56000 1004.000
67.60000 1031.000
67.64000 1025.000
67.68000 984.000
67.72000 964.000
67.76000 984.000
67.80000 997.000
67.84000 982.000
67.88000 1007.000
67.92000 1013.000
67.96000 1014.000
68.00000 926.000
68.04000 975.000
68.08000 1043.000
68.12000 961.000
68.16000 980.000
68.20000 1026.000
68.24000 926.000
68.28000 976.000
68.32000 1029.000
68.36000 976.000
68.40000 979.000
68.44000 975.000
68.48000 978.000
68.52000 998.000
68.56000 983.000
68.60000 953.000
68.64000 977.000
68.68000 996.000
68.72000 1049.000
68.76000 965.000
68.80000 949.000
68.84000 975.000
68.88000 974.000
68.92000 997.000
68.96000 1013.000
69.00000 1001.000
69.04000 988.000
69.08000 1054.000
69.12000 1074.000
69.16000 1050.000
69.20000 1147.000
69.24000 1258.000
69.28000 1248.000
69.32000 1314.000
69.36000 1473.000
69.40000 1550.000
69.44000 1626.000
69.48000 1607.000
69.52000 1642.000
69.56000 1546.000
69.60000 1512.000
69.64000 1418.000
69.68000 1359.000
69.72000 1312.000
69.76000 1283.000
69.80000 1292.000
69.84000 1164.000
69.88000 1105.000
69.92000 1106.000
