5.00000 4793.000
5.04000 4665.000
5.08000 4625.000
5.12000 4700.000
5.16000 4633.000
5.20000 4686.000
5.24000 4628.000
5.28000 4462.000
5.32000 4490.000
5.36000 4396.000
5.40000 4434.000
5.44000 4314.000
5.48000 4364.000
5.52000 4349.000
5.56000 4231.000
5.60000 4287.000
5.64000 4186.000
5.68000 4261.000
5.72000 4146.000
5.76000 4152.000
5.80000 4033.000
5.84000 4052.000
5.88000 3870.000
5.92000 3870.000
5.96000 3970.000
6.00000 3932.000
6.04000 3841.000
6.08000 3823.000
6.12000 3786.000
6.16000 3822.000
6.20000 3750.000
6.24000 3689.000
6.28000 3749.000
6.32000 3766.000
6.36000 3637.000
6.40000 3611.000
6.44000 3640.000
6.48000 3557.000
6.52000 3811.000
6.56000 3594.000
6.60000 3504.000
6.64000 3453.000
6.68000 3441.000
6.72000 3435.000
6.76000 3396.000
6.80000 3367.000
6.84000 3393.000
6.88000 3307.000
6.92000 3285.000
6.96000 3326.000
7.00000 3360.000
7.04000 3195.000
7.08000 3215.000
7.12000 3209.000
7.16000 3205.000
7.20000 3152.000
7.24000 3072.000
7.28000 3207.000
7.32000 3102.000
7.36000 3088.000
7.40000 3065.000
7.44000 3174.000
7.48000 3132.000
7.52000 3003.000
7.56000 3096.000
7.60000 2995.000
7.64000 2971.000
7.68000 2899.000
7.72000 2994.000
7.76000 2989.000
7.80000 2888.000
7.84000 2923.000
7.88000 2809.000
7.92000 2792.000
7.96000 2842.000
8.00000 2759.000
8.04000 2754.000
8.08000 2718.000
8.12000 2718.000
8.16000 2785.000
8.20000 2791.000
8.24000 2827.000
8.28000 2780.000
8.32000 2678.000
8.36000 2671.000
8.40000 2625.000
8.44000 2711.000
8.48000 2705.000
8.52000 2571.000
8.56000 2685.000
8.60000 2621.000
8.64000 2655.000
8.68000 2653.000
8.72000 2637.000
8.76000 2537.000
8.80000 2631.000
8.84000 2722.000
8.88000 2545.000
8.92000 2580.000
8.96000 2496.000
9.00000 2546.000
9.04000 2521.000
9.08000 2404.000
9.12000 2486.000
9.16000 2461.000
9.20000 2345.000
9.24000 2453.000
9.28000 2561.000
9.32000 2460.000
9.36000 2325.000
9.40000 2381.000
9.44000 2305.000
9.48000 2401.000
9.52000 2370.000
9.56000 2341.000
9.60000 2369.000
9.64000 2334.000
9.68000 2406.000
9.72000 2411.000
9.76000 2288.000
9.80000 2297.000
9.84000 2333.000
9.88000 2332.000
9.92000 2283.000
9.96000 2178.000
10.00000 2251.000
10.04000 2233.000
10.08000 2226.000
10.12000 2222.000
10.16000 2303.000
10.20000 2168.000
10.24000 2292.000
10.28000 2157.000
10.32000 2179.000
10.36000 2165.000
10.40000 2202.000
10.44000 2131.000
10.48000 2272.000
10.52000 2202.000
10.56000 2116.000
10.60000 2193.000
10.64000 2110.000
10.68000 2204.000
10.72000 2116.000
10.76000 2090.000
10.80000 2138.000
10.84000 2126.000
10.88000 2096.000
10.92000 2234.000
10.96000 2047.000
11.00000 2057.000
11.04000 2079.000
11.08000 2048.000
11.12000 2008.000
11.16000 2066.000
11.20000 2131.000
11.24000 2020.000
11.28000 2049.000
11.32000 2055.000
11.36000 2084.000
11.40000 2024.000
11.44000 2043.000
11.48000 1987.000
11.52000 1987.000
11.56000 2050.000
11.60000 2021.000
11.64000 2055.000
11.68000 2028.000
11.72000 1995.000
11.76000 2005.000
11.80000 1996.000
11.84000 2009.000
11.88000 1973.000
11.92000 1938.000
11.96000 1976.000
12.00000 2068.000
12.04000 2010.000
12.08000 2019.000
12.12000 1982.000
12.16000 2027.000
12.20000 2039.000
12.24000 2035.000
12.28000 1979.000
12.32000 1989.000
12.36000 2089.000
12.40000 2139.000
12.44000 2179.000
12.48000 2188.000
12.52000 2191.000
12.56000 2139.000
12.60000 2081.000
12.64000 2123.000
12.68000 2153.000
12.72000 2081.000
12.76000 2083.000
12.80000 2002.000
12.84000 1958.000
12.88000 1959.000
12.92000 2003.000
12.96000 1959.000
13.00000 2047.000
13.04000 1963.000
13.08000 1960.000
13.12000 1979.000
13.16000 1892.000
13.20000 2019.000
13.24000 1878.000
13.28000 1970.000
13.32000 1881.000
13.36000 1895.000
13.40000 1986.000
13.44000 1940.000
13.48000 1981.000
13.52000 1926.000
13.56000 2080.000
13.60000 1966.000
13.64000 1927.000
13.68000 2008.000
13.72000 1928.000
13.76000 1966.000
13.80000 1932.000
13.84000 1919.000
13.88000 1900.000
13.92000 1935.000
13.96000 1971.000
14.00000 1950.000
14.04000 2004.000
14.08000 2077.000
14.12000 2025.000
14.16000 1980.000
14.20000 2028.000
14.24000 1968.000
14.28000 2005.000
14.32000 1987.000
14.36000 2024.000
14.40000 1997.000
14.44000 2024.000
14.48000 1963.000
14.52000 2053.000
14.56000 2079.000
14.60000 2095.000
14.64000 2015.000
14.68000 2061.000
14.72000 2072.000
14.76000 2080.000
14.80000 2098.000
14.84000 2088.000
14.88000 2073.000
14.92000 2112.000
14.96000 2148.000
15.00000 2182.000
15.04000 2158.000
15.08000 2239.000
15.12000 2250.000
15.16000 2261.000
15.20000 2390.000
15.24000 2406.000
15.28000 2527.000
15.32000 2578.000
15.36000 2561.000
15.40000 2294.000
15.44000 2642.000
15.48000 2677.000
15.52000 2524.000
15.56000 2463.000
15.60000 2516.000
15.64000 2387.000
15.68000 2282.000
15.72000 2271.000
15.76000 2301.000
15.80000 2181.000
15.84000 2207.000
15.88000 2256.000
15.92000 2157.000
15.96000 2323.000
16.00000 2196.000
16.04000 2190.000
16.08000 2300.000
16.12000 2355.000
16.16000 2214.000
16.20000 2262.000
16.24000 2179.000
16.28000 2268.000
16.32000 2348.000
16.36000 2329.000
16.40000 2258.000
16.44000 2327.000
16.48000 2300.000
16.52000 2317.000
16.56000 2314.000
16.60000 2181.000
16.64000 2318.000
16.68000 2340.000
16.72000 2287.000
16.76000 2290.000
16.80000 2317.000
16.84000 2407.000
16.88000 2393.000
16.92000 2328.000
16.96000 2453.000
17.00000 2305.000
17.04000 2459.000
17.08000 2398.000
17.12000 2525.000
17.16000 2476.000
17.20000 2495.000
17.24000 2492.000
17.28000 2360.000
17.32000 2605.000
17.36000 2458.000
17.40000 2482.000
17.44000 2538.000
17.48000 2497.000
17.52000 2531.000
17.56000 2535.000
17.60000 2697.000
17.64000 2703.000
17.68000 2902.000
17.72000 2864.000
17.76000 2805.000
17.80000 2936.000
17.84000 3029.000
17.88000 3035.000
17.92000 2928.000
17.96000 3012.000
18.00000 2983.000
18.04000 2907.000
18.08000 2809.000
18.12000 2833.000
18.16000 2746.000
18.20000 2657.000
18.24000 2757.000
18.28000 2672.000
18.32000 2614.000
18.36000 2637.000
18.40000 2508.000
18.44000 2766.000
18.48000 2758.000
18.52000 2683.000
18.56000 2619.000
18.60000 2728.000
18.64000 2810.000
18.68000 2742.000
18.72000 2775.000
18.76000 2715.000
18.80000 2833.000
18.84000 2752.000
18.88000 2843.000
18.92000 2750.000
18.96000 2824.000
19.00000 2855.000
19.04000 2825.000
19.08000 2732.000
19.12000 2826.000
19.16000 2882.000
19.20000 2818.000
19.24000 2821.000
19.28000 2857.000
19.32000 2813.000
19.36000 2945.000
19.40000 2859.000
19.44000 2893.000
19.48000 3008.000
19.52000 2872.000
19.56000 2861.000
19.60000 2928.000
19.64000 2902.000
19.68000 3008.000
19.72000 2964.000
19.76000 2923.000
19.80000 2992.000
19.84000 3105.000
19.88000 3056.000
19.92000 3041.000
19.96000 2981.000
20.00000 3173.000
20.04000 3030.000
20.08000 2988.000
20.12000 3063.000
20.16000 3141.000
20.20000 3095.000
20.24000 3174.000
20.28000 2998.000
20.32000 3100.000
20.36000 3190.000
20.40000 3131.000
20.44000 3164.000
20.48000 3198.000
20.52000 3106.000
20.56000 3219.000
20.60000 3111.000
20.64000 3135.000
20.68000 3274.000
20.72000 3172.000
20.76000 3353.000
20.80000 3191.000
20.84000 3292.000
20.88000 3300.000
20.92000 3349.000
20.96000 3269.000
21.00000 3248.000
21.04000 3244.000
21.08000 3234.000
21.12000 3320.000
21.16000 3333.000
21.20000 3353.000
21.24000 3437.000
21.28000 3339.000
21.32000 3375.000
21.36000 3437.000
21.40000 3482.000
21.44000 3372.000
21.48000 3301.000
21.52000 3486.000
21.56000 3594.000
21.60000 3556.000
21.64000 3542.000
21.68000 3639.000
21.72000 3762.000
21.76000 3735.000
21.80000 3728.000
21.84000 3856.000
21.88000 3980.000
21.92000 3981.000
21.96000 3989.000
22.00000 3855.000
22.04000 3910.000
22.08000 3945.000
22.12000 3880.000
22.16000 3850.000
22.20000 3790.000
22.24000 3625.000
22.28000 3655.000
22.32000 3733.000
22.36000 3637.000
22.40000 3564.000
22.44000 3547.000
22.48000 3564.000
22.52000 3431.000
22.56000 3644.000
22.60000 3527.000
22.64000 3523.000
22.68000 3531.000
22.72000 3561.000
22.76000 3536.000
22.80000 3546.000
22.84000 3614.000
22.88000 3622.000
22.92000 3449.000
22.96000 3559.000
23.00000 3591.000
23.04000 3551.000
23.08000 3565.000
23.12000 3528.000
23.16000 3561.000
23.20000 3558.000
23.24000 3581.000
23.28000 3631.000
23.32000 3720.000
23.36000 3480.000
23.40000 3648.000
23.44000 3545.000
23.48000 3630.000
23.52000 3674.000
23.56000 3561.000
23.60000 3536.000
23.64000 3601.000
23.68000 3516.000
23.72000 3635.000
23.76000 3589.000
23.80000 3698.000
23.84000 3667.000
23.88000 3548.000
23.92000 3706.000
23.96000 3609.000
24.00000 3727.000
24.04000 3640.000
24.08000 3754.000
24.12000 3742.000
24.16000 3604.000
24.20000 3715.000
24.24000 3614.000
24.28000 3494.000
24.32000 3564.000
24.36000 3509.000
24.40000 3663.000
24.44000 3721.000
24.48000 3574.000
24.52000 3504.000
24.56000 3584.000
24.60000 3577.000
24.64000 3584.000
24.68000 3552.000
24.72000 3568.000
24.76000 3478.000
24.80000 3600.000
24.84000 3606.000
24.88000 3631.000
24.92000 3516.000
24.96000 3451.000
25.00000 3594.000
25.04000 3493.000
25.08000 3437.000
25.12000 3535.000
25.16000 3565.000
25.20000 3536.000
25.24000 3588.000
25.28000 3586.000
25.32000 3626.000
25.36000 3627.000
25.40000 3644.000
25.44000 3567.000
25.48000 3642.000
25.52000 3625.000
25.56000 3641.000
25.60000 3625.000
25.64000 3696.000
25.68000 3634.000
25.72000 3585.000
25.76000 3689.000
25.80000 3701.000
25.84000 3598.000
25.88000 3653.000
25.92000 3622.000
25.96000 3569.000
26.00000 3561.000
26.04000 3551.000
26.08000 3556.000
26.12000 3527.000
26.16000 3613.000
26.20000 3530.000
26.24000 3600.000
26.28000 3660.000
26.32000 3671.000
26.36000 3707.000
26.40000 3644.000
26.44000 3837.000
26.48000 3867.000
26.52000 3998.000
26.56000 4155.000
26.60000 4331.000
26.64000 4364.000
26.68000 4749.000
26.72000 5050.000
26.76000 5408.000
26.80000 5582.000
26.84000 6189.000
26.88000 6185.000
26.92000 6517.000
26.96000 6664.000
27.00000 6790.000
27.04000 6862.000
27.08000 6744.000
27.12000 6423.000
27.16000 6256.000
27.20000 5958.000
27.24000 5620.000
27.28000 5303.000
27.32000 5166.000
27.36000 5030.000
27.40000 5118.000
27.44000 4882.000
27.48000 4610.000
27.52000 4311.000
27.56000 3906.000
27.60000 3634.000
27.64000 3435.000
27.68000 3372.000
27.72000 3344.000
27.76000 3272.000
27.80000 3179.000
27.84000 3181.000
27.88000 3139.000
27.92000 3140.000
27.96000 3225.000
28.00000 3204.000
28.04000 3169.000
28.08000 3217.000
28.12000 3047.000
28.16000 3168.000
28.20000 3206.000
28.24000 3155.000
28.28000 3181.000
28.32000 3159.000
28.36000 3175.000
28.40000 3113.000
28.44000 3154.000
28.48000 3052.000
28.52000 3095.000
28.56000 3120.000
28.60000 3096.000
28.64000 3179.000
28.68000 3246.000
28.72000 3086.000
28.76000 3158.000
28.80000 3017.000
28.84000 3207.000
28.88000 3190.000
28.92000 3076.000
28.96000 3015.000
29.00000 3150.000
29.04000 3103.000
29.08000 3179.000
29.12000 2977.000
29.16000 3064.000
29.20000 3195.000
29.24000 3056.000
29.28000 3058.000
29.32000 3103.000
29.36000 3064.000
29.40000 3282.000
29.44000 3249.000
29.48000 3407.000
29.52000 3527.000
29.56000 3992.000
29.60000 4684.000
29.64000 5676.000
29.68000 6874.000
29.72000 7866.000
29.76000 9057.000
29.80000 10042.000
29.84000 10515.000
29.88000 10148.000
29.92000 9472.000
29.96000 8566.000
30.00000 7199.000
30.04000 6025.000
30.08000 4939.000
30.12000 3995.000
30.16000 3521.000
30.20000 3254.000
30.24000 3116.000
30.28000 2981.000
30.32000 2916.000
30.36000 2804.000
30.40000 2878.000
30.44000 3074.000
30.48000 2965.000
30.52000 2971.000
30.56000 3058.000
30.60000 2893.000
30.64000 3070.000
30.68000 3076.000
30.72000 3049.000
30.76000 3100.000
30.80000 3138.000
30.84000 3146.000
30.88000 3357.000
30.92000 3270.000
30.96000 3434.000
31.00000 3526.000
31.04000 3666.000
31.08000 3714.000
31.12000 3880.000
31.16000 4038.000
31.20000 4074.000
31.24000 4212.000
31.28000 4173.000
31.32000 4275.000
31.36000 4077.000
31.40000 4004.000
31.44000 3819.000
31.48000 3606.000
31.52000 3417.000
31.56000 3252.000
31.60000 3164.000
31.64000 2959.000
31.68000 2948.000
31.72000 2795.000
31.76000 2842.000
31.80000 2700.000
31.84000 2656.000
31.88000 2629.000
31.92000 2600.000
31.96000 2684.000
32.00000 2669.000
32.04000 2571.000
32.08000 2592.000
32.12000 2564.000
32.16000 2517.000
32.20000 2617.000
32.24000 2392.000
32.28000 2546.000
32.32000 2562.000
32.36000 2493.000
32.40000 2430.000
32.44000 2463.000
32.48000 2404.000
32.52000 2429.000
32.56000 2465.000
32.60000 2314.000
32.64000 2446.000
32.68000 2438.000
32.72000 2413.000
32.76000 2267.000
32.80000 2418.000
32.84000 2405.000
32.88000 2314.000
32.92000 2333.000
32.96000 2389.000
33.00000 2302.000
33.04000 2284.000
33.08000 2312.000
33.12000 2260.000
33.16000 2284.000
33.20000 2288.000
33.24000 2337.000
33.28000 2325.000
33.32000 2321.000
33.36000 2337.000
33.40000 2244.000
33.44000 2235.000
33.48000 2262.000
33.52000 2266.000
33.56000 2200.000
33.60000 2195.000
33.64000 2214.000
33.68000 2233.000
33.72000 2241.000
33.76000 2208.000
33.80000 2220.000
33.84000 2176.000
33.88000 2181.000
33.92000 2105.000
33.96000 2127.000
34.00000 2070.000
34.04000 2165.000
34.08000 2167.000
34.12000 2177.000
34.16000 2167.000
34.20000 2129.000
34.24000 2102.000
34.28000 2087.000
34.32000 2181.000
34.36000 2065.000
34.40000 2193.000
34.44000 2109.000
34.48000 2107.000
34.52000 2005.000
34.56000 2070.000
34.60000 1952.000
34.64000 2098.000
34.68000 2012.000
34.72000 2071.000
34.76000 2013.000
34.80000 1983.000
34.84000 1994.000
34.88000 2024.000
34.92000 2047.000
34.96000 1931.000
35.00000 1916.000
35.04000 1946.000
35.08000 1931.000
35.12000 1977.000
35.16000 1918.000
35.20000 1900.000
35.24000 1958.000
35.28000 1971.000
35.32000 1883.000
35.36000 1838.000
35.40000 1869.000
35.44000 1882.000
35.48000 1874.000
35.52000 1749.000
35.56000 1776.000
35.60000 1868.000
35.64000 1820.000
35.68000 1874.000
35.72000 1859.000
35.76000 1788.000
35.80000 1801.000
35.84000 1830.000
35.88000 1837.000
35.92000 1824.000
35.96000 1738.000
36.00000 1833.000
36.04000 1678.000
36.08000 1802.000
36.12000 1757.000
36.16000 1778.000
36.20000 1655.000
36.24000 1696.000
36.28000 1681.000
36.32000 1684.000
36.36000 1747.000
36.40000 1667.000
36.44000 1704.000
36.48000 1685.000
36.52000 1742.000
36.56000 1668.000
36.60000 1757.000
36.64000 1710.000
36.68000 1553.000
36.72000 1695.000
36.76000 1666.000
36.80000 1603.000
36.84000 1627.000
36.88000 1586.000
36.92000 1636.000
36.96000 1692.000
37.00000 1620.000
37.04000 1653.000
37.08000 1516.000
37.12000 1634.000
37.16000 1648.000
37.20000 1590.000
37.24000 1619.000
37.28000 1600.000
37.32000 1604.000
37.36000 1607.000
37.40000 1524.000
37.44000 1578.000
37.48000 1627.000
37.52000 1540.000
37.56000 1573.000
37.60000 1593.000
37.64000 1554.000
37.68000 1598.000
37.72000 1544.000
37.76000 1555.000
37.80000 1548.000
37.84000 1562.000
37.88000 1514.000
37.92000 1508.000
37.96000 1541.000
38.00000 1456.000
38.04000 1536.000
38.08000 1508.000
38.12000 1439.000
38.16000 1578.000
38.20000 1470.000
38.24000 1510.000
38.28000 1639.000
38.32000 1615.000
38.36000 1563.000
38.40000 1596.000
38.44000 1585.000
38.48000 1615.000
38.52000 1643.000
38.56000 1586.000
38.60000 1659.000
38.64000 1590.000
38.68000 1604.000
38.72000 1617.000
38.76000 1622.000
38.80000 1569.000
38.84000 1544.000
38.88000 1529.000
38.92000 1496.000
38.96000 1476.000
39.00000 1405.000
39.04000 1532.000
39.08000 1445.000
39.12000 1413.000
39.16000 1426.000
39.20000 1464.000
39.24000 1497.000
39.28000 1386.000
39.32000 1344.000
39.36000 1402.000
39.40000 1500.000
39.44000 1462.000
39.48000 1436.000
39.52000 1447.000
39.56000 1425.000
39.60000 1460.000
39.64000 1456.000
39.68000 1507.000
39.72000 1434.000
39.76000 1418.000
39.80000 1353.000
39.84000 1438.000
39.88000 1382.000
39.92000 1496.000
39.96000 1393.000
40.00000 1418.000
40.04000 1404.000
40.08000 1520.000
40.12000 1448.000
40.16000 1453.000
40.20000 1421.000
40.24000 1389.000
40.28000 1461.000
40.32000 1489.000
40.36000 1407.000
40.40000 1376.000
40.44000 1367.000
40.48000 1392.000
40.52000 1385.000
40.56000 1393.000
40.60000 1433.000
40.64000 1393.000
40.68000 1478.000
40.72000 1437.000
40.76000 1474.000
40.80000 1456.000
40.84000 1424.000
40.88000 1385.000
40.92000 1423.000
40.96000 1397.000
41.00000 1339.000
41.04000 1376.000
41.08000 1498.000
41.12000 1415.000
41.16000 1385.000
41.20000 1378.000
41.24000 1371.000
41.28000 1426.000
41.32000 1412.000
41.36000 1422.000
41.40000 1452.000
41.44000 1411.000
41.48000 1383.000
41.52000 1411.000
41.56000 1375.000
41.60000 1387.000
41.64000 1473.000
41.68000 1481.000
41.72000 1375.000
41.76000 1398.000
41.80000 1450.000
41.84000 1424.000
41.88000 1443.000
41.92000 1469.000
41.96000 1446.000
42.00000 1423.000
42.04000 1402.000
42.08000 1348.000
42.12000 1412.000
42.16000 1450.000
42.20000 1423.000
42.24000 1415.000
42.28000 1495.000
42.32000 1467.000
42.36000 1450.000
42.40000 1429.000
42.44000 1511.000
42.48000 1455.000
42.52000 1485.000
42.56000 1557.000
42.60000 1597.000
42.64000 1612.000
42.68000 1588.000
42.72000 1484.000
42.76000 1540.000
42.80000 1551.000
42.84000 1550.000
42.88000 1474.000
42.92000 1512.000
42.96000 1502.000
43.00000 1443.000
43.04000 1468.000
43.08000 1457.000
43.12000 1458.000
43.16000 1356.000
43.20000 1443.000
43.24000 1374.000
43.28000 1452.000
43.32000 1431.000
43.36000 1448.000
43.40000 1375.000
43.44000 1478.000
43.48000 1380.000
43.52000 1401.000
43.56000 1362.000
43.60000 1394.000
43.64000 1386.000
43.68000 1432.000
43.72000 1422.000
43.76000 1471.000
43.80000 1416.000
43.84000 1497.000
43.88000 1435.000
43.92000 1500.000
43.96000 1528.000
44.00000 1436.000
44.04000 1467.000
44.08000 1434.000
44.12000 1550.000
44.16000 1452.000
44.20000 1477.000
44.24000 1488.000
44.28000 1543.000
44.32000 1511.000
44.36000 1525.000
44.40000 1549.000
44.44000 1540.000
44.48000 1497.000
44.52000 1520.000
44.56000 1645.000
44.60000 1571.000
44.64000 1660.000
44.68000 1704.000
44.72000 1762.000
44.76000 1811.000
44.80000 1752.000
44.84000 1827.000
44.88000 1844.000
44.92000 1795.000
44.96000 1799.000
45.00000 1866.000
45.04000 1828.000
45.08000 1829.000
45.12000 1721.000
45.16000 1655.000
45.20000 1645.000
45.24000 1587.000
45.28000 1602.000
45.32000 1534.000
45.36000 1461.000
45.40000 1478.000
45.44000 1415.000
45.48000 1433.000
45.52000 1421.000
45.56000 1366.000
45.60000 1369.000
45.64000 1362.000
45.68000 1348.000
45.72000 1297.000
45.76000 1388.000
45.80000 1354.000
45.84000 1421.000
45.88000 1341.000
45.92000 1316.000
45.96000 1327.000
46.00000 1317.000
46.04000 1322.000
46.08000 1316.000
46.12000 1282.000
46.16000 1382.000
46.20000 1290.000
46.24000 1391.000
46.28000 1306.000
46.32000 1324.000
46.36000 1294.000
46.40000 1344.000
46.44000 1332.000
46.48000 1373.000
46.52000 1263.000
46.56000 1356.000
46.60000 1402.000
46.64000 1352.000
46.68000 1249.000
46.72000 1318.000
46.76000 1310.000
46.80000 1329.000
46.84000 1235.000
46.88000 1313.000
46.92000 1299.000
46.96000 1303.000
47.00000 1313.000
47.04000 1287.000
47.08000 1248.000
47.12000 1251.000
47.16000 1271.000
47.20000 1331.000
47.24000 1334.000
47.28000 1282.000
47.32000 1259.000
47.36000 1269.000
47.40000 1245.000
47.44000 1339.000
47.48000 1281.000
47.52000 1270.000
47.56000 1266.000
47.60000 1292.000
47.64000 1229.000
47.68000 1309.000
47.72000 1338.000
47.76000 1250.000
47.80000 1280.000
47.84000 1270.000
47.88000 1289.000
47.92000 1219.000
47.96000 1241.000
48.00000 1197.000
48.04000 1259.000
48.08000 1228.000
48.12000 1302.000
48.16000 1172.000
48.20000 1173.000
48.24000 1214.000
48.28000 1268.000
48.32000 1217.000
48.36000 1232.000
48.40000 1227.000
48.44000 1210.000
48.48000 1264.000
48.52000 1241.000
48.56000 1258.000
48.60000 1230.000
48.64000 1177.000
48.68000 1202.000
48.72000 1167.000
48.76000 1183.000
48.80000 1218.000
48.84000 1240.000
48.88000 1192.000
48.92000 1250.000
48.96000 1200.000
49.00000 1191.000
49.04000 1234.000
49.08000 1214.000
49.12000 1234.000
49.16000 1238.000
49.20000 1227.000
49.24000 1240.000
49.28000 1214.000
49.32000 1265.000
49.36000 1196.000
49.40000 1214.000
49.44000 1174.000
49.48000 1184.000
49.52000 1198.000
49.56000 1198.000
49.60000 1221.000
49.64000 1180.000
49.68000 1285.000
49.72000 1154.000
49.76000 1182.000
49.80000 1185.000
49.84000 1202.000
49.88000 1222.000
49.92000 1218.000
49.96000 1253.000
50.00000 1197.000
50.04000 1228.000
50.08000 1174.000
50.12000 1133.000
50.16000 1191.000
50.20000 1201.000
50.24000 1229.000
50.28000 1175.000
50.32000 1198.000
50.36000 1211.000
50.40000 1186.000
50.44000 1212.000
50.48000 1207.000
50.52000 1215.000
50.56000 1254.000
50.60000 1231.000
50.64000 1194.000
50.68000 1234.000
50.72000 1251.000
50.76000 1161.000
50.80000 1222.000
50.84000 1175.000
50.88000 1204.000
50.92000 1190.000
50.96000 1170.000
51.00000 1269.000
51.04000 1180.000
51.08000 1188.000
51.12000 1222.000
51.16000 1178.000
51.20000 1164.000
51.24000 1154.000
51.28000 1201.000
51.32000 1171.000
51.36000 1165.000
51.40000 1210.000
51.44000 1142.000
51.48000 1148.000
51.52000 1256.000
51.56000 1207.000
51.60000 1203.000
51.64000 1176.000
51.68000 1175.000
51.72000 1169.000
51.76000 1230.000
51.80000 1187.000
51.84000 1206.000
51.88000 1214.000
51.92000 1185.000
51.96000 1178.000
52.00000 1114.000
52.04000 1129.000
52.08000 1149.000
52.12000 1189.000
52.16000 1200.000
52.20000 1175.000
52.24000 1174.000
52.28000 1183.000
52.32000 1171.000
52.36000 1190.000
52.40000 1173.000
52.44000 1158.000
52.48000 1204.000
52.52000 1158.000
52.56000 1165.000
52.60000 1178.000
52.64000 1180.000
52.68000 1169.000
52.72000 1173.000
52.76000 1257.000
52.80000 1234.000
52.84000 1246.000
52.88000 1240.000
52.92000 1288.000
52.96000 1287.000
53.00000 1312.000
53.04000 1320.000
53.08000 1303.000
53.12000 1284.000
53.16000 1297.000
53.20000 1299.000
53.24000 1328.000
53.28000 1249.000
53.32000 1261.000
53.36000 1275.000
53.40000 1193.000
53.44000 1268.000
53.48000 1262.000
53.52000 1211.000
53.56000 1205.000
53.60000 1246.000
53.64000 1243.000
53.68000 1238.000
53.72000 1253.000
53.76000 1157.000
53.80000 1177.000
53.84000 1186.000
53.88000 1173.000
53.92000 1172.000
53.96000 1161.000
54.00000 1194.000
54.04000 1198.000
54.08000 1215.000
54.12000 1168.000
54.16000 1202.000
54.20000 1183.000
54.24000 1201.000
54.28000 1203.000
54.32000 1191.000
54.36000 1174.000
54.40000 1165.000
54.44000 1154.000
54.48000 1216.000
54.52000 1168.000
54.56000 1141.000
54.60000 1193.000
54.64000 1173.000
54.68000 1217.000
54.72000 1188.000
54.76000 1178.000
54.80000 1152.000
54.84000 1229.000
54.88000 1244.000
54.92000 1217.000
54.96000 1214.000
55.00000 1187.000
55.04000 1183.000
55.08000 1256.000
55.12000 1170.000
55.16000 1237.000
55.20000 1256.000
55.24000 1295.000
55.28000 1256.000
55.32000 1235.000
55.36000 1235.000
55.40000 1346.000
55.44000 1262.000
55.48000 1290.000
55.52000 1307.000
55.56000 1336.000
55.60000 1292.000
55.64000 1343.000
55.68000 1393.000
55.72000 1384.000
55.76000 1458.000
55.80000 1376.000
55.84000 1476.000
55.88000 1437.000
55.92000 1454.000
55.96000 1467.000
56.00000 1477.000
56.04000 1438.000
56.08000 1525.000
56.12000 1327.000
56.16000 1443.000
56.20000 1386.000
56.24000 1367.000
56.28000 1330.000
56.32000 1311.000
56.36000 1228.000
56.40000 1227.000
56.44000 1264.000
56.48000 1134.000
56.52000 1173.000
56.56000 1242.000
56.60000 1156.000
56.64000 1255.000
56.68000 1140.000
56.72000 1176.000
56.76000 1166.000
56.80000 1197.000
56.84000 1201.000
56.88000 1212.000
56.92000 1171.000
56.96000 1144.000
57.00000 1194.000
57.04000 1148.000
57.08000 1172.000
57.12000 1158.000
57.16000 1237.000
57.20000 1119.000
57.24000 1145.000
57.28000 1175.000
57.32000 1200.000
57.36000 1156.000
57.40000 1189.000
57.44000 1114.000
57.48000 1120.000
57.52000 1089.000
57.56000 1183.000
57.60000 1169.000
57.64000 1200.000
57.68000 1117.000
57.72000 1162.000
57.76000 1211.000
57.80000 1124.000
57.84000 1206.000
57.88000 1198.000
57.92000 1216.000
57.96000 1212.000
58.00000 1181.000
58.04000 1098.000
58.08000 1154.000
58.12000 1092.000
58.16000 1080.000
58.20000 1140.000
58.24000 1110.000
58.28000 1175.000
58.32000 1200.000
58.36000 1162.000
58.40000 1128.000
58.44000 1157.000
58.48000 1190.000
58.52000 1098.000
58.56000 1165.000
58.60000 1140.000
58.64000 1163.000
58.68000 1108.000
58.72000 1155.000
58.76000 1143.000
58.80000 1097.000
58.84000 1206.000
58.88000 1139.000
58.92000 1162.000
58.96000 1156.000
59.00000 1201.000
59.04000 1193.000
59.08000 1119.000
59.12000 1187.000
59.16000 1137.000
59.20000 1143.000
59.24000 1171.000
59.28000 1112.000
59.32000 1090.000
59.36000 1153.000
59.40000 1204.000
59.44000 1142.000
59.48000 1107.000
59.52000 1116.000
59.56000 1158.000
59.60000 1148.000
59.64000 1186.000
59.68000 1174.000
59.72000 1079.000
59.76000 1105.000
59.80000 1148.000
59.84000 1179.000
59.88000 1139.000
59.92000 1141.000
59.96000 1085.000
60.00000 1131.000
60.04000 1113.000
60.08000 1157.000
60.12000 1092.000
60.16000 1131.000
60.20000 1216.000
60.24000 1160.000
60.28000 1161.000
60.32000 1121.000
60.36000 1231.000
60.40000 1181.000
60.44000 1197.000
60.48000 1201.000
60.52000 1152.000
60.56000 1141.000
60.60000 1205.000
60.64000 1160.000
60.68000 1099.000
60.72000 1142.000
60.76000 1222.000
60.80000 1094.000
60.84000 1184.000
60.88000 1153.000
60.92000 1184.000
60.96000 1089.000
61.00000 1174.000
61.04000 1191.000
61.08000 1167.000
61.12000 1168.000
61.16000 1093.000
61.20000 1191.000
61.24000 1174.000
61.28000 1133.000
61.32000 1168.000
61.36000 1133.000
61.40000 1129.000
61.44000 1090.000
61.48000 1013.000
61.52000 1158.000
61.56000 1129.000
61.60000 1106.000
61.64000 1173.000
61.68000 1183.000
61.72000 1179.000
61.76000 1236.000
61.80000 1200.000
61.84000 1386.000
61.88000 1368.000
61.92000 1415.000
61.96000 1512.000
62.00000 1465.000
62.04000 1575.000
62.08000 1536.000
62.12000 1567.000
62.16000 1537.000
62.20000 1437.000
62.24000 1329.000
62.28000 1405.000
62.32000 1279.000
62.36000 1250.000
62.40000 1262.000
62.44000 1181.000
62.48000 1211.000
62.52000 1173.000
62.56000 1162.000
62.60000 1092.000
62.64000 1199.000
62.68000 1104.000
62.72000 1151.000
62.76000 1121.000
62.80000 1116.000
62.84000 1129.000
62.88000 1171.000
62.92000 1116.000
62.96000 1082.000
63.00000 1113.000
63.04000 1150.000
63.08000 1104.000
63.12000 1076.000
63.16000 1069.000
63.20000 1125.000
63.24000 1091.000
63.28000 1168.000
63.32000 1148.000
63.36000 1093.000
63.40000 1152.000
63.44000 1099.000
63.48000 1133.000
63.52000 1153.000
63.56000 1194.000
63.60000 1056.000
63.64000 1089.000
63.68000 1094.000
63.72000 1120.000
63.76000 1145.000
63.80000 1133.000
63.84000 1147.000
63.88000 1144.000
63.92000 1047.000
63.96000 1082.000
64.00000 1175.000
64.04000 1116.000
64.08000 1063.000
64.12000 1050.000
64.16000 1050.000
64.20000 1100.000
64.24000 1075.000
64.28000 1064.000
64.32000 1166.000
64.36000 1033.000
64.40000 1084.000
64.44000 1112.000
64.48000 1107.000
64.52000 1111.000
64.56000 1088.000
64.60000 1154.000
64.64000 1117.000
64.68000 1128.000
64.72000 1117.000
64.76000 1119.000
64.80000 1148.000
64.84000 1034.000
64.88000 1095.000
64.92000 1072.000
64.96000 1077.000
65.00000 1131.000
65.04000 1121.000
65.08000 1122.000
65.12000 1100.000
65.16000 1066.000
65.20000 1165.000
65.24000 1099.000
65.28000 1126.000
65.32000 1058.000
65.36000 1100.000
65.40000 1086.000
65.44000 1131.000
65.48000 1104.000
65.52000 1139.000
65.56000 1102.000
65.60000 1114.000
65.64000 1132.000
65.68000 1046.000
65.72000 1090.000
65.76000 1058.000
65.80000 1053.000
65.84000 1101.000
65.88000 1066.000
65.92000 1125.000
65.96000 1030.000
66.00000 1104.000
66.04000 1066.000
66.08000 1003.000
66.12000 1064.000
66.16000 1058.000
66.20000 990.000
66.24000 1046.000
66.28000 1036.000
66.32000 1028.000
66.36000 1078.000
66.40000 1069.000
66.44000 1067.000
66.48000 1100.000
66.52000 1029.000
66.56000 1092.000
66.60000 1085.000
66.64000 1053.000
66.68000 1077.000
66.72000 1071.000
66.76000 972.000
66.80000 1042.000
66.84000 1059.000
66.88000 1027.000
66.92000 1025.000
66.96000 1042.000
67.00000 993.000
67.04000 1043.000
67.08000 1086.000
67.12000 1053.000
67.16000 1005.000
67.20000 1014.000
67.24000 985.000
67.28000 1033.000
67.32000 1052.000
67.36000 1010.000
67.40000 1012.000
67.44000 1007.000
67.48000 1056.000
67.52000 1037.000
67.56000 1030.000
67.60000 972.000
67.64000 1006.000
67.68000 1008.000
67.72000 1013.000
67.76000 1041.000
67.80000 1000.000
67.84000 1004.000
67.88000 1021.000
67.92000 1013.000
67.96000 1024.000
68.00000 1034.000
68.04000 935.000
68.08000 1020.000
68.12000 1021.000
68.16000 1075.000
68.20000 996.000
68.24000 974.000
68.28000 1001.000
68.32000 1031.000
68.36000 999.000
68.40000 963.000
68.44000 1009.000
68.48000 931.000
68.52000 971.000
68.56000 1052.000
68.60000 919.000
68.64000 1033.000
68.68000 1023.000
68.72000 982.000
68.76000 967.000
68.80000 1008.000
68.84000 991.000
68.88000 1018.000
68.92000 984.000
68.96000 995.000
69.00000 1012.000
69.04000 965.000
69.08000 998.000
69.12000 976.000
69.16000 987.000
69.20000 1009.000
69.24000 1029.000
69.28000 1022.000
69.32000 955.000
69.36000 1039.000
69.40000 992.000
69.44000 1016.000
69.48000 963.000
69.52000 943.000
69.56000 914.000
69.60000 994.000
69.64000 956.000
69.68000 1002.000
69.72000 966.000
69.76000 1014.000
69.80000 982.000
69.84000 987.000
69.88000 975.000
69.92000 1024.000
