5.00000 4741.000
5.04000 4779.000
5.08000 4767.000
5.12000 4816.000
5.16000 4476.000
5.20000 4535.000
5.24000 4549.000
5.28000 4478.000
5.32000 4418.000
5.36000 4459.000
5.40000 4448.000
5.44000 4409.000
5.48000 4262.000
5.52000 4270.000
5.56000 4345.000
5.60000 4199.000
5.64000 4206.000
5.68000 4256.000
5.72000 4078.000
5.76000 4092.000
5.80000 4069.000
5.84000 3960.000
5.88000 3920.000
5.92000 4012.000
5.96000 3747.000
6.00000 3974.000
6.04000 3847.000
6.08000 3889.000
6.12000 3773.000
6.16000 3761.000
6.20000 3662.000
6.24000 3726.000
6.28000 3769.000
6.32000 3619.000
6.36000 3600.000
6.40000 3598.000
6.44000 3702.000
6.48000 3656.000
6.52000 3511.000
6.56000 3530.000
6.60000 3454.000
6.64000 3464.000
6.68000 3449.000
6.72000 3325.000
6.76000 3378.000
6.80000 3398.000
6.84000 3373.000
6.88000 3404.000
6.92000 3226.000
6.96000 3252.000
7.00000 3264.000
7.04000 3239.000
7.08000 3275.000
7.12000 3195.000
7.16000 3138.000
7.20000 3089.000
7.24000 3098.000
7.28000 3031.000
7.32000 3075.000
7.36000 3002.000
7.40000 3107.000
7.44000 3059.000
7.48000 3156.000
7.52000 2997.000
7.56000 2993.000
7.60000 2895.000
7.64000 2958.000
7.68000 2983.000
7.72000 2930.000
7.76000 2916.000
7.80000 2830.000
7.84000 2915.000
7.88000 2844.000
7.92000 2854.000
7.96000 2866.000
8.00000 2679.000
8.04000 2759.000
8.08000 2820.000
8.12000 2778.000
8.16000 2786.000
8.20000 2809.000
8.24000 2753.000
8.28000 2699.000
8.32000 2790.000
8.36000 2814.000
8.40000 2865.000
8.44000 2773.000
8.48000 2798.000
8.52000 2875.000
8.56000 2821.000
8.60000 2844.000
8.64000 2943.000
8.68000 2863.000
8.72000 2926.000
8.76000 2850.000
8.80000 2815.000
8.84000 2670.000
8.88000 2733.000
8.92000 2580.000
8.96000 2587.000
9.00000 2598.000
9.04000 2566.000
9.08000 2503.000
9.12000 2496.000
9.16000 2371.000
9.20000 2419.000
9.24000 2468.000
9.28000 2451.000
9.32000 2397.000
9.36000 2349.000
9.40000 2393.000
9.44000 2414.000
9.48000 2368.000
9.52000 2271.000
9.56000 2355.000
9.60000 2346.000
9.64000 2220.000
9.68000 2282.000
9.72000 2336.000
9.76000 2375.000
9.80000 2297.000
9.84000 2319.000
9.88000 2275.000
9.92000 2259.000
9.96000 2258.000
10.00000 2302.000
10.04000 2205.000
10.08000 2216.000
10.12000 2182.000
10.16000 2260.000
10.20000 2271.000
10.24000 2204.000
10.28000 2164.000
10.32000 2195.000
10.36000 2222.000
10.40000 2259.000
10.44000 2140.000
10.48000 2134.000
10.52000 2163.000
10.56000 2150.000
10.60000 2127.000
10.64000 2030.000
10.68000 2117.000
10.72000 2100.000
10.76000 2077.000
10.80000 2025.000
10.84000 2046.000
10.88000 2120.000
10.92000 2031.000
10.96000 2018.000
11.00000 2056.000
11.04000 2058.000
11.08000 1995.000
11.12000 2038.000
11.16000 2118.000
11.20000 2089.000
11.24000 2091.000
11.28000 2073.000
11.32000 2195.000
11.36000 2058.000
11.40000 2194.000
11.44000 2125.000
11.48000 2189.000
11.52000 2294.000
11.56000 2343.000
11.60000 2200.000
11.64000 2623.000
11.68000 2633.000
11.72000 2809.000
11.76000 2842.000
11.80000 2889.000
11.84000 2946.000
11.88000 2920.000
11.92000 2755.000
11.96000 2738.000
12.00000 2544.000
12.04000 2370.000
12.08000 2268.000
12.12000 2066.000
12.16000 1952.000
12.20000 1964.000
12.24000 2002.000
12.28000 1920.000
12.32000 1959.000
12.36000 1993.000
12.40000 1939.000
12.44000 1962.000
12.48000 1941.000
12.52000 2026.000
12.56000 1910.000
12.60000 2016.000
12.64000 2152.000
12.68000 2291.000
12.72000 2403.000
12.76000 2577.000
12.80000 2791.000
12.84000 3026.000
12.88000 3109.000
12.92000 3254.000
12.96000 3354.000
13.00000 3470.000
13.04000 3329.000
13.08000 3335.000
13.12000 3290.000
13.16000 3170.000
13.20000 3034.000
13.24000 2935.000
13.28000 2946.000
13.32000 2764.000
13.36000 2599.000
13.40000 2469.000
13.44000 2294.000
13.48000 2230.000
13.52000 2108.000
13.56000 1938.000
13.60000 1984.000
13.64000 1863.000
13.68000 1876.000
13.72000 1878.000
13.76000 1905.000
13.80000 1849.000
13.84000 1921.000
13.88000 1891.000
13.92000 1949.000
13.96000 1881.000
14.00000 1853.000
14.04000 1911.000
14.08000 1950.000
14.12000 1920.000
14.16000 2006.000
14.20000 2020.000
14.24000 2008.000
14.28000 1998.000
14.32000 1974.000
14.36000 1981.000
14.40000 1957.000
14.44000 1989.000
14.48000 1992.000
14.52000 1910.000
14.56000 1929.000
14.60000 2034.000
14.64000 1920.000
14.68000 1925.000
14.72000 1920.000
14.76000 1946.000
14.80000 1920.000
14.84000 1996.000
14.88000 1906.000
14.92000 1970.000
14.96000 1894.000
15.00000 1966.000
15.04000 1968.000
15.08000 1978.000
15.12000 1992.000
15.16000 1987.000
15.20000 1988.000
15.24000 1969.000
15.28000 2060.000
15.32000 2014.000
15.36000 2012.000
15.40000 2040.000
15.44000 2062.000
15.48000 2112.000
15.52000 2071.000
15.56000 2064.000
15.60000 2064.000
15.64000 2095.000
15.68000 2017.000
15.72000 2109.000
15.76000 2151.000
15.80000 2037.000
15.84000 2024.000
15.88000 2169.000
15.92000 2067.000
15.96000 1995.000
16.00000 2061.000
16.04000 2068.000
16.08000 2019.000
16.12000 2061.000
16.16000 2064.000
16.20000 2055.000
16.24000 2029.000
16.28000 2056.000
16.32000 2068.000
16.36000 2127.000
16.40000 2150.000
16.44000 2312.000
16.48000 2420.000
16.52000 2638.000
16.56000 2749.000
16.60000 3125.000
16.64000 3306.000
16.68000 3509.000
16.72000 3691.000
16.76000 3666.000
16.80000 3615.000
16.84000 3407.000
16.88000 3054.000
16.92000 2806.000
16.96000 2656.000
17.00000 2378.000
17.04000 2197.000
17.08000 2171.000
17.12000 2193.000
17.16000 2210.000
17.20000 2181.000
17.24000 2163.000
17.28000 2220.000
17.32000 2191.000
17.36000 2227.000
17.40000 2296.000
17.44000 2187.000
17.48000 2244.000
17.52000 2395.000
17.56000 2461.000
17.60000 2452.000
17.64000 2409.000
17.68000 2440.000
17.72000 2550.000
17.76000 2480.000
17.80000 2427.000
17.84000 2457.000
17.88000 2432.000
17.92000 2394.000
17.96000 2324.000
18.00000 2267.000
18.04000 2239.000
18.08000 2270.000
18.12000 2303.000
18.16000 2226.000
18.20000 2260.000
18.24000 2299.000
18.28000 2259.000
18.32000 2322.000
18.36000 2277.000
18.40000 2323.000
18.44000 2275.000
18.48000 2398.000
18.52000 2370.000
18.56000 2404.000
18.60000 2428.000
18.64000 2400.000
18.68000 2429.000
18.72000 2403.000
18.76000 2415.000
18.80000 2532.000
18.84000 2460.000
18.88000 2586.000
18.92000 2661.000
18.96000 2657.000
19.00000 2718.000
19.04000 2741.000
19.08000 2694.000
19.12000 2779.000
19.16000 2737.000
19.20000 2714.000
19.24000 2763.000
19.28000 2739.000
19.32000 2696.000
19.36000 2652.000
19.40000 2627.000
19.44000 2506.000
19.48000 2575.000
19.52000 2570.000
19.56000 2572.000
19.60000 2604.000
19.64000 2533.000
19.68000 2545.000
19.72000 2631.000
19.76000 2596.000
19.80000 2570.000
19.84000 2570.000
19.88000 2603.000
19.92000 2534.000
19.96000 2556.000
20.00000 2532.000
20.04000 2650.000
20.08000 2585.000
20.12000 2706.000
20.16000 2695.000
20.20000 2671.000
20.24000 2648.000
20.28000 2679.000
20.32000 2736.000
20.36000 2639.000
20.40000 2827.000
20.44000 2750.000
20.48000 2809.000
20.52000 2736.000
20.56000 2813.000
20.60000 2887.000
20.64000 2841.000
20.68000 2947.000
20.72000 2959.000
20.76000 2999.000
20.80000 3124.000
20.84000 3298.000
20.88000 3277.000
20.92000 3316.000
20.96000 3374.000
21.00000 3400.000
21.04000 3410.000
21.08000 3538.000
21.12000 3479.000
21.16000 3587.000
21.20000 3541.000
21.24000 3599.000
21.28000 3599.000
21.32000 3567.000
21.36000 3496.000
21.40000 3281.000
21.44000 3144.000
21.48000 3091.000
21.52000 3046.000
21.56000 2915.000
21.60000 2944.000
21.64000 2922.000
21.68000 2921.000
21.72000 2909.000
21.76000 2988.000
21.80000 2921.000
21.84000 3003.000
21.88000 2948.000
21.92000 3056.000
21.96000 2967.000
22.00000 2923.000
22.04000 2948.000
22.08000 2959.000
22.12000 2960.000
22.16000 2957.000
22.20000 3063.000
22.24000 3012.000
22.28000 3079.000
22.32000 3073.000
22.36000 3058.000
22.40000 3126.000
22.44000 3123.000
22.48000 3144.000
22.52000 3262.000
22.56000 3296.000
22.60000 3300.000
22.64000 3361.000
22.68000 3412.000
22.72000 3488.000
22.76000 3481.000
22.80000 3494.000
22.84000 3643.000
22.88000 3594.000
22.92000 3742.000
22.96000 3712.000
23.00000 3859.000
23.04000 4013.000
23.08000 4156.000
23.12000 4267.000
23.16000 4471.000
23.20000 4746.000
23.24000 5030.000
23.28000 5223.000
23.32000 5551.000
23.36000 5807.000
23.40000 6225.000
23.44000 6650.000
23.48000 6602.000
23.52000 6699.000
23.56000 6662.000
23.60000 6487.000
23.64000 5983.000
23.68000 5417.000
23.72000 5019.000
23.76000 4401.000
23.80000 3934.000
23.84000 3780.000
23.88000 3559.000
23.92000 3530.000
23.96000 3496.000
24.00000 3380.000
24.04000 3299.000
24.08000 3332.000
24.12000 3313.000
24.16000 3081.000
24.20000 3127.000
24.24000 3039.000
24.28000 3106.000
24.32000 3055.000
24.36000 3077.000
24.40000 3063.000
24.44000 3065.000
24.48000 3036.000
24.52000 3155.000
24.56000 3153.000
24.60000 3035.000
24.64000 3102.000
24.68000 3143.000
24.72000 3003.000
24.76000 3040.000
24.80000 2999.000
24.84000 3044.000
24.88000 3130.000
24.92000 3042.000
24.96000 3172.000
25.00000 3250.000
25.04000 3127.000
25.08000 3142.000
25.12000 3186.000
25.16000 3216.000
25.20000 3082.000
25.24000 3157.000
25.28000 3105.000
25.32000 2982.000
25.36000 3165.000
25.40000 3162.000
25.44000 2982.000
25.48000 3063.000
25.52000 3116.000
25.56000 3083.000
25.60000 2966.000
25.64000 3103.000
25.68000 3074.000
25.72000 2970.000
25.76000 3097.000
25.80000 3115.000
25.84000 3077.000
25.88000 3090.000
25.92000 3085.000
25.96000 3080.000
26.00000 3012.000
26.04000 3056.000
26.08000 3159.000
26.12000 3072.000
26.16000 2938.000
26.20000 3011.000
26.24000 2920.000
26.28000 2954.000
26.32000 3073.000
26.36000 3028.000
26.40000 2971.000
26.44000 3081.000
26.48000 2993.000
26.52000 3144.000
26.56000 3173.000
26.60000 3062.000
26.64000 3187.000
26.68000 3110.000
26.72000 3254.000
26.76000 3248.000
26.80000 3159.000
26.84000 3184.000
26.88000 3225.000
26.92000 3135.000
26.96000 3175.000
27.00000 3063.000
27.04000 3031.000
27.08000 3005.000
27.12000 2956.000
27.16000 2987.000
27.20000 2971.000
27.24000 2989.000
27.28000 3021.000
27.32000 2961.000
27.36000 2842.000
27.40000 2867.000
27.44000 2779.000
27.48000 2861.000
27.52000 2855.000
27.56000 2784.000
27.60000 2808.000
27.64000 2866.000
27.68000 2814.000
27.72000 2838.000
27.76000 2932.000
27.80000 2774.000
27.84000 2819.000
27.88000 2863.000
27.92000 2926.000
27.96000 2867.000
28.00000 2887.000
28.04000 2890.000
28.08000 2609.000
28.12000 3046.000
28.16000 3145.000
28.20000 3242.000
28.24000 3362.000
28.28000 3442.000
28.32000 3365.000
28.36000 3421.000
28.40000 3285.000
28.44000 3214.000
28.48000 3173.000
28.52000 3101.000
28.56000 3173.000
28.60000 2867.000
28.64000 2907.000
28.68000 3100.000
28.72000 3199.000
28.76000 3295.000
28.80000 3529.000
28.84000 3687.000
28.88000 3787.000
28.92000 3917.000
28.96000 4083.000
29.00000 3946.000
29.04000 4009.000
29.08000 3905.000
29.12000 3840.000
29.16000 3699.000
29.20000 3446.000
29.24000 3524.000
29.28000 3258.000
29.32000 3102.000
29.36000 2960.000
29.40000 2753.000
29.44000 2757.000
29.48000 2670.000
29.52000 2757.000
29.56000 2658.000
29.60000 2706.000
29.64000 2722.000
29.68000 2683.000
29.72000 2685.000
29.76000 2836.000
29.80000 2812.000
29.84000 2933.000
29.88000 2917.000
29.92000 2998.000
29.96000 3075.000
30.00000 3013.000
30.04000 3009.000
30.08000 2937.000
30.12000 2783.000
30.16000 2720.000
30.20000 2700.000
30.24000 2596.000
30.28000 2501.000
30.32000 2601.000
30.36000 2499.000
30.40000 2515.000
30.44000 2486.000
30.48000 2478.000
30.52000 2452.000
30.56000 2510.000
30.60000 2527.000
30.64000 2489.000
30.68000 2451.000
30.72000 2524.000
30.76000 2423.000
30.80000 2440.000
30.84000 2437.000
30.88000 2514.000
30.92000 2446.000
30.96000 2383.000
31.00000 2404.000
31.04000 2345.000
31.08000 2488.000
31.12000 2421.000
31.16000 2380.000
31.20000 2368.000
31.24000 2470.000
31.28000 2419.000
31.32000 2348.000
31.36000 2435.000
31.40000 2306.000
31.44000 2422.000
31.48000 2415.000
31.52000 2475.000
31.56000 2338.000
31.60000 2357.000
31.64000 2367.000
31.68000 2387.000
31.72000 2359.000
31.76000 2358.000
31.80000 2413.000
31.84000 2346.000
31.88000 2313.000
31.92000 2367.000
31.96000 2310.000
32.00000 2328.000
32.04000 2348.000
32.08000 2360.000
32.12000 2321.000
32.16000 2273.000
32.20000 2273.000
32.24000 2251.000
32.28000 2191.000
32.32000 2286.000
32.36000 2160.000
32.40000 2198.000
32.44000 2212.000
32.48000 2215.000
32.52000 2206.000
32.56000 2219.000
32.60000 2135.000
32.64000 2116.000
32.68000 2120.000
32.72000 2134.000
32.76000 2223.000
32.80000 2076.000
32.84000 2148.000
32.88000 2197.000
32.92000 2032.000
32.96000 2163.000
33.00000 2220.000
33.04000 2196.000
33.08000 2134.000
33.12000 2200.000
33.16000 2092.000
33.20000 2252.000
33.24000 2336.000
33.28000 2230.000
33.32000 2168.000
33.36000 2325.000
33.40000 2211.000
33.44000 2216.000
33.48000 2296.000
33.52000 2281.000
33.56000 2265.000
33.60000 2354.000
33.64000 2180.000
33.68000 2257.000
33.72000 2289.000
33.76000 2202.000
33.80000 2219.000
33.84000 2281.000
33.88000 2310.000
33.92000 2233.000
33.96000 2316.000
34.00000 2218.000
34.04000 2213.000
34.08000 2154.000
34.12000 2159.000
34.16000 2033.000
34.20000 1977.000
34.24000 1986.000
34.28000 2021.000
34.32000 1922.000
34.36000 1901.000
34.40000 1863.000
34.44000 1867.000
34.48000 1845.000
34.52000 1942.000
34.56000 1851.000
34.60000 1908.000
34.64000 1821.000
34.68000 1849.000
34.72000 1793.000
34.76000 1782.000
34.80000 1755.000
34.84000 1822.000
34.88000 1831.000
34.92000 1859.000
34.96000 1782.000
35.00000 1765.000
35.04000 1841.000
35.08000 1817.000
35.12000 1818.000
35.16000 1840.000
35.20000 1844.000
35.24000 1742.000
35.28000 1763.000
35.32000 1704.000
35.36000 1801.000
35.40000 1718.000
35.44000 1718.000
35.48000 1802.000
35.52000 1747.000
35.56000 1733.000
35.60000 1791.000
35.64000 1734.000
35.68000 1705.000
35.72000 1730.000
35.76000 1729.000
35.80000 1672.000
35.84000 1723.000
35.88000 1828.000
35.92000 1789.000
35.96000 1843.000
36.00000 1807.000
36.04000 1744.000
36.08000 1687.000
36.12000 1768.000
36.16000 1842.000
36.20000 1784.000
36.24000 1756.000
36.28000 1679.000
36.32000 1488.000
36.36000 1685.000
36.40000 1654.000
36.44000 1624.000
36.48000 1715.000
36.52000 1603.000
36.56000 1567.000
36.60000 1512.000
36.64000 1579.000
36.68000 1517.000
36.72000 1582.000
36.76000 1602.000
36.80000 1603.000
36.84000 1582.000
36.88000 1524.000
36.92000 1617.000
36.96000 1587.000
37.00000 1543.000
37.04000 1586.000
37.08000 1566.000
37.12000 1625.000
37.16000 1505.000
37.20000 1569.000
37.24000 1497.000
37.28000 1516.000
37.32000 1502.000
37.36000 1485.000
37.40000 1486.000
37.44000 1500.000
37.48000 1502.000
37.52000 1511.000
37.56000 1484.000
37.60000 1397.000
37.64000 1443.000
37.68000 1515.000
37.72000 1566.000
37.76000 1464.000
37.80000 1498.000
37.84000 1511.000
37.88000 1499.000
37.92000 1426.000
37.96000 1524.000
38.00000 1432.000
38.04000 1414.000
38.08000 1468.000
38.12000 1455.000
38.16000 1424.000
38.20000 1422.000
38.24000 1436.000
38.28000 1414.000
38.32000 1420.000
38.36000 1405.000
38.40000 1377.000
38.44000 1453.000
38.48000 1553.000
38.52000 1413.000
38.56000 1387.000
38.60000 1350.000
38.64000 1465.000
38.68000 1484.000
38.72000 1477.000
38.76000 1427.000
38.80000 1442.000
38.84000 1400.000
38.88000 1413.000
38.92000 1409.000
38.96000 1442.000
39.00000 1411.000
39.04000 1385.000
39.08000 1431.000
39.12000 1431.000
39.16000 1393.000
39.20000 1473.000
39.24000 1416.000
39.28000 1449.000
39.32000 1368.000
39.36000 1466.000
39.40000 1424.000
39.44000 1370.000
39.48000 1457.000
39.52000 1426.000
39.56000 1439.000
39.60000 1391.000
39.64000 1392.000
39.68000 1504.000
39.72000 1489.000
39.76000 1447.000
39.80000 1442.000
39.84000 1485.000
39.88000 1411.000
39.92000 1474.000
39.96000 1413.000
40.00000 1434.000
40.04000 1478.000
40.08000 1394.000
40.12000 1473.000
40.16000 1468.000
40.20000 1555.000
40.24000 1522.000
40.28000 1564.000
40.32000 1635.000
40.36000 1573.000
40.40000 1641.000
40.44000 1628.000
40.48000 1657.000
40.52000 1622.000
40.56000 1658.000
40.60000 1649.000
40.64000 1664.000
40.68000 1696.000
40.72000 1629.000
40.76000 1609.000
40.80000 1444.000
40.84000 1414.000
40.88000 1496.000
40.92000 1438.000
40.96000 1428.000
41.00000 1433.000
41.04000 1380.000
41.08000 1359.000
41.12000 1470.000
41.16000 1463.000
41.20000 1401.000
41.24000 1422.000
41.28000 1384.000
41.32000 1356.000
41.36000 1443.000
41.40000 1404.000
41.44000 1398.000
41.48000 1422.000
41.52000 1431.000
41.56000 1445.000
41.60000 1380.000
41.64000 1465.000
41.68000 1433.000
41.72000 1451.000
41.76000 1435.000
41.80000 1459.000
41.84000 1516.000
41.88000 1478.000
41.92000 1543.000
41.96000 1524.000
42.00000 1496.000
42.04000 1544.000
42.08000 1561.000
42.12000 1455.000
42.16000 1557.000
42.20000 1520.000
42.24000 1490.000
42.28000 1471.000
42.32000 1488.000
42.36000 1393.000
42.40000 1416.000
42.44000 1470.000
42.48000 1500.000
42.52000 1446.000
42.56000 1400.000
42.60000 1428.000
42.64000 1471.000
42.68000 1413.000
42.72000 1383.000
42.76000 1470.000
42.80000 1426.000
42.84000 1410.000
42.88000 1396.000
42.92000 1336.000
42.96000 1343.000
43.00000 1373.000
43.04000 1409.000
43.08000 1414.000
43.12000 1372.000
43.16000 1351.000
43.20000 1387.000
43.24000 1400.000
43.28000 1331.000
43.32000 1463.000
43.36000 1318.000
43.40000 1366.000
43.44000 1421.000
43.48000 1373.000
43.52000 1442.000
43.56000 1398.000
43.60000 1402.000
43.64000 1480.000
43.68000 1425.000
43.72000 1355.000
43.76000 1359.000
43.80000 1393.000
43.84000 1364.000
43.88000 1308.000
43.92000 1357.000
43.96000 1394.000
44.00000 1330.000
44.04000 1390.000
44.08000 1370.000
44.12000 1399.000
44.16000 1405.000
44.20000 1309.000
44.24000 1456.000
44.28000 1435.000
44.32000 1458.000
44.36000 1356.000
44.40000 1410.000
44.44000 1316.000
44.48000 1419.000
44.52000 1391.000
44.56000 1345.000
44.60000 1299.000
44.64000 1314.000
44.68000 1330.000
44.72000 1407.000
44.76000 1330.000
44.80000 1338.000
44.84000 1370.000
44.88000 1396.000
44.92000 1335.000
44.96000 1368.000
45.00000 1356.000
45.04000 1321.000
45.08000 1375.000
45.12000 1340.000
45.16000 1370.000
45.20000 1311.000
45.24000 1346.000
45.28000 1294.000
45.32000 1365.000
45.36000 1268.000
45.40000 1309.000
45.44000 1347.000
45.48000 1358.000
45.52000 1314.000
45.56000 1355.000
45.60000 1245.000
45.64000 1303.000
45.68000 1325.000
45.72000 1370.000
45.76000 1361.000
45.80000 1302.000
45.84000 1370.000
45.88000 1356.000
45.92000 1339.000
45.96000 1361.000
46.00000 1377.000
46.04000 1429.000
46.08000 1458.000
46.12000 1526.000
46.16000 1678.000
46.20000 1725.000
46.24000 1846.000
46.28000 2097.000
46.32000 2080.000
46.36000 2145.000
46.40000 2196.000
46.44000 2204.000
46.48000 2188.000
46.52000 2103.000
46.56000 2100.000
46.60000 1990.000
46.64000 1897.000
46.68000 1780.000
46.72000 1751.000
46.76000 1633.000
46.80000 1635.000
46.84000 1542.000
46.88000 1536.000
46.92000 1425.000
46.96000 1479.000
47.00000 1423.000
47.04000 1412.000
47.08000 1408.000
47.12000 1380.000
47.16000 1425.000
47.20000 1432.000
47.24000 1358.000
47.28000 1312.000
47.32000 1308.000
47.36000 1263.000
47.40000 1364.000
47.44000 1365.000
47.48000 1262.000
47.52000 1305.000
47.56000 1223.000
47.60000 1291.000
47.64000 1253.000
47.68000 1300.000
47.72000 1303.000
47.76000 1321.000
47.80000 1336.000
47.84000 1313.000
47.88000 1290.000
47.92000 1259.000
47.96000 1259.000
48.00000 1302.000
48.04000 1232.000
48.08000 1204.000
48.12000 1251.000
48.16000 1259.000
48.20000 1274.000
48.24000 1260.000
48.28000 1232.000
48.32000 1220.000
48.36000 1242.000
48.40000 1217.000
48.44000 1212.000
48.48000 1298.000
48.52000 1275.000
48.56000 1361.000
48.60000 1300.000
48.64000 1340.000
48.68000 1275.000
48.72000 1294.000
48.76000 1399.000
48.80000 1410.000
48.84000 1328.000
48.88000 1412.000
48.92000 1388.000
48.96000 1360.000
49.00000 1317.000
49.04000 1305.000
49.08000 1241.000
49.12000 1193.000
49.16000 1317.000
49.20000 1211.000
49.24000 1252.000
49.28000 1282.000
49.32000 1195.000
49.36000 1186.000
49.40000 1266.000
49.44000 1213.000
49.48000 1245.000
49.52000 1243.000
49.56000 1196.000
49.60000 1238.000
49.64000 1227.000
49.68000 1237.000
49.72000 1245.000
49.76000 1202.000
49.80000 1165.000
49.84000 1222.000
49.88000 1191.000
49.92000 1222.000
49.96000 1219.000
50.00000 1263.000
50.04000 1217.000
50.08000 1248.000
50.12000 1217.000
50.16000 1118.000
50.20000 1183.000
50.24000 1226.000
50.28000 1211.000
50.32000 1231.000
50.36000 1191.000
50.40000 1167.000
50.44000 1130.000
50.48000 1193.000
50.52000 1172.000
50.56000 1141.000
50.60000 1141.000
50.64000 1112.000
50.68000 1195.000
50.72000 1172.000
50.76000 1160.000
50.80000 1193.000
50.84000 1221.000
50.88000 1200.000
50.92000 1200.000
50.96000 1170.000
51.00000 1114.000
51.04000 1186.000
51.08000 1186.000
51.12000 1194.000
51.16000 1200.000
51.20000 1156.000
51.24000 1227.000
51.28000 1226.000
51.32000 1198.000
51.36000 1182.000
51.40000 1197.000
51.44000 1226.000
51.48000 1186.000
51.52000 1199.000
51.56000 1246.000
51.60000 1233.000
51.64000 1213.000
51.68000 1208.000
51.72000 1257.000
51.76000 1273.000
51.80000 1368.000
51.84000 1423.000
51.88000 1589.000
51.92000 1674.000
51.96000 1748.000
52.00000 1818.000
52.04000 1929.000
52.08000 1934.000
52.12000 1914.000
52.16000 1822.000
52.20000 1722.000
52.24000 1603.000
52.28000 1469.000
52.32000 1386.000
52.36000 1321.000
52.40000 1312.000
52.44000 1219.000
52.48000 1236.000
52.52000 1215.000
52.56000 1199.000
52.60000 1236.000
52.64000 1248.000
52.68000 1193.000
52.72000 1148.000
52.76000 1205.000
52.80000 1194.000
52.84000 1123.000
52.88000 1149.000
52.92000 1241.000
52.96000 1240.000
53.00000 1251.000
53.04000 1208.000
53.08000 1250.000
53.12000 1222.000
53.16000 1223.000
53.20000 1237.000
53.24000 1263.000
53.28000 1244.000
53.32000 1217.000
53.36000 1231.000
53.40000 1235.000
53.44000 1206.000
53.48000 1190.000
53.52000 1216.000
53.56000 1215.000
53.60000 1251.000
53.64000 1240.000
53.68000 1254.000
53.72000 1194.000
53.76000 1218.000
53.80000 1237.000
53.84000 1239.000
53.88000 1148.000
53.92000 1224.000
53.96000 1201.000
54.00000 1113.000
54.04000 1143.000
54.08000 1209.000
54.12000 1115.000
54.16000 1140.000
54.20000 1169.000
54.24000 1127.000
54.28000 1177.000
54.32000 1093.000
54.36000 1122.000
54.40000 1100.000
54.44000 1122.000
54.48000 1124.000
54.52000 1190.000
54.56000 989.000
54.60000 1102.000
54.64000 1057.000
54.68000 1062.000
54.72000 1133.000
54.76000 1155.000
54.80000 1133.000
54.84000 1161.000
54.88000 1143.000
54.92000 1075.000
54.96000 1114.000
55.00000 1131.000
55.04000 1093.000
55.08000 1128.000
55.12000 1072.000
55.16000 1134.000
55.20000 1097.000
55.24000 1080.000
55.28000 1140.000
55.32000 1151.000
55.36000 1099.000
55.40000 1147.000
55.44000 1152.000
55.48000 1184.000
55.52000 1087.000
55.56000 1195.000
55.60000 1174.000
55.64000 1170.000
55.68000 1121.000
55.72000 1147.000
55.76000 1119.000
55.80000 1105.000
55.84000 1106.000
55.88000 1085.000
55.92000 1129.000
55.96000 1109.000
56.00000 1124.000
56.04000 1098.000
56.08000 1074.000
56.12000 1103.000
56.16000 1082.000
56.20000 1089.000
56.24000 1121.000
56.28000 1154.000
56.32000 1087.000
56.36000 1160.000
56.40000 1095.000
56.44000 1086.000
56.48000 1109.000
56.52000 1074.000
56.56000 1059.000
56.60000 1239.000
56.64000 1108.000
56.68000 1171.000
56.72000 1081.000
56.76000 1149.000
56.80000 1145.000
56.84000 1142.000
56.88000 1137.000
56.92000 1113.000
56.96000 1059.000
57.00000 1069.000
57.04000 1094.000
57.08000 1070.000
57.12000 1148.000
57.16000 1162.000
57.20000 1135.000
57.24000 1105.000
57.28000 1083.000
57.32000 1141.000
57.36000 1158.000
57.40000 1125.000
57.44000 1118.000
57.48000 1114.000
57.52000 1114.000
57.56000 1103.000
57.60000 1202.000
57.64000 1142.000
57.68000 1125.000
57.72000 1130.000
57.76000 1092.000
57.80000 1173.000
57.84000 1138.000
57.88000 1083.000
57.92000 1134.000
57.96000 1131.000
58.00000 1137.000
58.04000 1107.000
58.08000 1098.000
58.12000 1101.000
58.16000 1134.000
58.20000 1087.000
58.24000 1079.000
58.28000 1108.000
58.32000 1091.000
58.36000 1065.000
58.40000 1088.000
58.44000 1170.000
58.48000 1153.000
58.52000 1215.000
58.56000 1173.000
58.60000 1130.000
58.64000 1101.000
58.68000 1196.000
58.72000 1203.000
58.76000 1125.000
58.80000 1193.000
58.84000 1144.000
58.88000 1262.000
58.92000 1164.000
58.96000 1182.000
59.00000 1157.000
59.04000 1195.000
59.08000 1201.000
59.12000 1163.000
59.16000 1168.000
59.20000 1167.000
59.24000 1113.000
59.28000 1188.000
59.32000 1111.000
59.36000 1160.000
59.40000 1105.000
59.44000 1094.000
59.48000 1067.000
59.52000 1139.000
59.56000 1132.000
59.60000 1140.000
59.64000 1101.000
59.68000 1086.000
59.72000 1141.000
59.76000 1109.000
59.80000 1058.000
59.84000 1120.000
59.88000 1120.000
59.92000 1143.000
59.96000 1166.000
60.00000 1106.000
60.04000 1060.000
60.08000 1056.000
60.12000 1158.000
60.16000 1084.000
60.20000 1083.000
60.24000 1069.000
60.28000 1177.000
60.32000 1120.000
60.36000 1120.000
60.40000 1117.000
60.44000 1120.000
60.48000 1099.000
60.52000 1104.000
60.56000 1086.000
60.60000 1098.000
60.64000 1067.000
60.68000 1108.000
60.72000 1142.000
60.76000 1142.000
60.80000 1104.000
60.84000 1207.000
60.88000 1058.000
60.92000 1078.000
60.96000 1151.000
61.00000 1115.000
61.04000 1114.000
61.08000 1150.000
61.12000 1078.000
61.16000 1044.000
61.20000 1113.000
61.24000 1163.000
61.28000 1106.000
61.32000 1095.000
61.36000 1042.000
61.40000 1158.000
61.44000 1120.000
61.48000 1122.000
61.52000 1121.000
61.56000 1127.000
61.60000 1124.000
61.64000 1107.000
61.68000 1134.000
61.72000 1177.000
61.76000 1105.000
61.80000 1170.000
61.84000 1074.000
61.88000 1113.000
61.92000 1117.000
61.96000 1135.000
62.00000 1128.000
62.04000 1060.000
62.08000 1163.000
62.12000 1131.000
62.16000 1115.000
62.20000 1121.000
62.24000 1161.000
62.28000 1090.000
62.32000 1136.000
62.36000 1101.000
62.40000 1120.000
62.44000 1118.000
62.48000 1167.000
62.52000 1053.000
62.56000 1095.000
62.60000 1118.000
62.64000 1124.000
62.68000 1062.000
62.72000 1119.000
62.76000 1073.000
62.80000 1080.000
62.84000 1047.000
62.88000 1151.000
62.92000 1031.000
62.96000 1056.000
63.00000 1060.000
63.04000 1068.000
63.08000 1057.000
63.12000 1111.000
63.16000 1127.000
63.20000 1072.000
63.24000 1044.000
63.28000 1061.000
63.32000 1111.000
63.36000 1055.000
63.40000 1086.000
63.44000 1040.000
63.48000 1102.000
63.52000 1130.000
63.56000 1077.000
63.60000 1111.000
63.64000 1125.000
63.68000 1053.000
63.72000 918.000
63.76000 1092.000
63.80000 1077.000
63.84000 1015.000
63.88000 1095.000
63.92000 1110.000
63.96000 1075.000
64.00000 1140.000
64.04000 1070.000
64.08000 1023.000
64.12000 1145.000
64.16000 1053.000
64.20000 1142.000
64.24000 1036.000
64.28000 1114.000
64.32000 1035.000
64.36000 1050.000
64.40000 1050.000
64.44000 1008.000
64.48000 1099.000
64.52000 1081.000
64.56000 1098.000
64.60000 1058.000
64.64000 1082.000
64.68000 1136.000
64.72000 1084.000
64.76000 1047.000
64.80000 1109.000
64.84000 1073.000
64.88000 1084.000
64.92000 1124.000
64.96000 1073.000
65.00000 1053.000
65.04000 1058.000
65.08000 1089.000
65.12000 1028.000
65.16000 1080.000
65.20000 1061.000
65.24000 1034.000
65.28000 1040.000
65.32000 1075.000
65.36000 1030.000
65.40000 1069.000
65.44000 1069.000
65.48000 1015.000
65.52000 1026.000
65.56000 1083.000
65.60000 1086.000
65.64000 1047.000
65.68000 1033.000
65.72000 1039.000
65.76000 1065.000
65.80000 1031.000
65.84000 1045.000
65.88000 984.000
65.92000 1008.000
65.96000 1069.000
66.00000 1004.000
66.04000 1031.000
66.08000 1033.000
66.12000 996.000
66.16000 1054.000
66.20000 1029.000
66.24000 1029.000
66.28000 1043.000
66.32000 1043.000
66.36000 1005.000
66.40000 1028.000
66.44000 999.000
66.48000 1000.000
66.52000 1063.000
66.56000 1088.000
66.60000 1032.000
66.64000 990.000
66.68000 1009.000
66.72000 1013.000
66.76000 1024.000
66.80000 1031.000
66.84000 1052.000
66.88000 1030.000
66.92000 1056.000
66.96000 1079.000
67.00000 978.000
67.04000 1019.000
67.08000 1063.000
67.12000 978.000
67.16000 1067.000
67.20000 965.000
67.24000 1053.000
67.28000 1043.000
67.32000 1027.000
67.36000 1029.000
67.40000 982.000
67.44000 1024.000
67.48000 992.000
67.52000 951.000
67.56000 1011.000
67.60000 960.000
67.64000 998.000
67.68000 1060.000
67.72000 997.000
67.76000 941.000
67.80000 1029.000
67.84000 1066.000
67.88000 964.000
67.92000 1026.000
67.96000 1055.000
68.00000 1074.000
68.04000 1053.000
68.08000 978.000
68.12000 983.000
68.16000 946.000
68.20000 1022.000
68.24000 971.000
68.28000 927.000
68.32000 995.000
68.36000 1047.000
68.40000 929.000
68.44000 964.000
68.48000 989.000
68.52000 911.000
68.56000 1042.000
68.60000 964.000
68.64000 968.000
68.68000 990.000
68.72000 996.000
68.76000 948.000
68.80000 953.000
68.84000 997.000
68.88000 966.000
68.92000 975.000
68.96000 1001.000
69.00000 982.000
69.04000 987.000
69.08000 905.000
69.12000 931.000
69.16000 969.000
69.20000 933.000
69.24000 921.000
69.28000 967.000
69.32000 955.000
69.36000 934.000
69.40000 992.000
69.44000 909.000
69.48000 983.000
69.52000 978.000
69.56000 960.000
69.60000 967.000
69.64000 968.000
69.68000 922.000
69.72000 1009.000
69.76000 1006.000
69.80000 955.000
69.84000 943.000
69.88000 972.000
69.92000 910.000
