5.00000 5983.000
5.04000 5935.000
5.08000 5995.000
5.12000 5786.000
5.16000 5868.000
5.20000 5920.000
5.24000 5788.000
5.28000 5777.000
5.32000 5702.000
5.36000 5734.000
5.40000 5689.000
5.44000 5679.000
5.48000 5596.000
5.52000 5518.000
5.56000 5580.000
5.60000 5694.000
5.64000 5513.000
5.68000 5598.000
5.72000 5426.000
5.76000 5398.000
5.80000 5330.000
5.84000 5377.000
5.88000 5180.000
5.92000 5231.000
5.96000 5280.000
6.00000 5069.000
6.04000 5050.000
6.08000 4955.000
6.12000 5000.000
6.16000 5145.000
6.20000 4838.000
6.24000 4911.000
6.28000 4820.000
6.32000 4733.000
6.36000 4819.000
6.40000 4715.000
6.44000 4756.000
6.48000 4670.000
6.52000 4649.000
6.56000 4694.000
6.60000 4714.000
6.64000 4674.000
6.68000 4692.000
6.72000 4624.000
6.76000 4513.000
6.80000 4421.000
6.84000 4558.000
6.88000 4421.000
6.92000 4505.000
6.96000 4439.000
7.00000 4477.000
7.04000 4493.000
7.08000 4435.000
7.12000 4370.000
7.16000 4340.000
7.20000 4358.000
7.24000 4297.000
7.28000 4358.000
7.32000 4188.000
7.36000 4165.000
7.40000 4216.000
7.44000 4096.000
7.48000 4079.000
7.52000 3980.000
7.56000 4076.000
7.60000 4097.000
7.64000 3941.000
7.68000 4061.000
7.72000 4025.000
7.76000 3960.000
7.80000 3959.000
7.84000 3903.000
7.88000 3819.000
7.92000 3932.000
7.96000 3912.000
8.00000 3817.000
8.04000 3829.000
8.08000 3972.000
8.12000 3666.000
8.16000 3731.000
8.20000 3762.000
8.24000 3866.000
8.28000 3859.000
8.32000 3844.000
8.36000 3772.000
8.40000 3696.000
8.44000 3770.000
8.48000 3721.000
8.52000 3685.000
8.56000 3651.000
8.60000 3646.000
8.64000 3586.000
8.68000 3510.000
8.72000 3576.000
8.76000 3433.000
8.80000 3490.000
8.84000 3431.000
8.88000 3300.000
8.92000 3497.000
8.96000 3404.000
9.00000 3349.000
9.04000 3385.000
9.08000 3297.000
9.12000 3208.000
9.16000 3293.000
9.20000 3349.000
9.24000 3338.000
9.28000 3425.000
9.32000 3251.000
9.36000 3217.000
9.40000 3311.000
9.44000 3337.000
9.48000 3284.000
9.52000 3243.000
9.56000 3222.000
9.60000 3354.000
9.64000 3134.000
9.68000 3189.000
9.72000 3173.000
9.76000 3147.000
9.80000 3071.000
9.84000 3151.000
9.88000 3236.000
9.92000 3167.000
9.96000 3082.000
10.00000 3082.000
10.04000 3057.000
10.08000 3128.000
10.12000 3126.000
10.16000 3017.000
10.20000 2975.000
10.24000 3036.000
10.28000 2954.000
10.32000 2927.000
10.36000 2919.000
10.40000 2870.000
10.44000 3000.000
10.48000 2926.000
10.52000 3018.000
10.56000 2965.000
10.60000 3008.000
10.64000 3055.000
10.68000 3020.000
10.72000 2924.000
10.76000 2786.000
10.80000 2817.000
10.84000 2909.000
10.88000 2902.000
10.92000 2805.000
10.96000 2761.000
11.00000 2796.000
11.04000 2813.000
11.08000 2856.000
11.12000 2830.000
11.16000 2781.000
11.20000 2703.000
11.24000 2835.000
11.28000 2759.000
11.32000 2861.000
11.36000 2842.000
11.40000 2794.000
11.44000 2732.000
11.48000 2807.000
11.52000 2859.000
11.56000 2786.000
11.60000 2725.000
11.64000 2731.000
11.68000 2695.000
11.72000 2702.000
11.76000 2615.000
11.80000 2803.000
11.84000 2615.000
11.88000 2750.000
11.92000 2731.000
11.96000 2693.000
12.00000 2657.000
12.04000 2675.000
12.08000 2661.000
12.12000 2636.000
12.16000 2659.000
12.20000 2715.000
12.24000 2611.000
12.28000 2629.000
12.32000 2696.000
12.36000 2534.000
12.40000 2633.000
12.44000 2598.000
12.48000 2516.000
12.52000 2653.000
12.56000 2568.000
12.60000 2602.000
12.64000 2513.000
12.68000 2628.000
12.72000 2474.000
12.76000 2612.000
12.80000 2533.000
12.84000 2567.000
12.88000 2566.000
12.92000 2552.000
12.96000 2602.000
13.00000 2509.000
13.04000 2534.000
13.08000 2582.000
13.12000 2493.000
13.16000 2668.000
13.20000 2567.000
13.24000 2530.000
13.28000 2619.000
13.32000 2488.000
13.36000 2472.000
13.40000 2525.000
13.44000 2481.000
13.48000 2645.000
13.52000 2540.000
13.56000 2539.000
13.60000 2468.000
13.64000 2545.000
13.68000 2495.000
13.72000 2525.000
13.76000 2538.000
13.80000 2420.000
13.84000 2494.000
13.88000 2543.000
13.92000 2513.000
13.96000 2416.000
14.00000 2451.000
14.04000 2540.000
14.08000 2398.000
14.12000 2587.000
14.16000 2553.000
14.20000 2545.000
14.24000 2491.000
14.28000 2486.000
14.32000 2428.000
14.36000 2466.000
14.40000 2547.000
14.44000 2496.000
14.48000 2513.000
14.52000 2549.000
14.56000 2431.000
14.60000 2462.000
14.64000 2513.000
14.68000 2491.000
14.72000 2462.000
14.76000 2553.000
14.80000 2412.000
14.84000 2498.000
14.88000 2573.000
14.92000 2492.000
14.96000 2582.000
15.00000 2583.000
15.04000 2523.000
15.08000 2620.000
15.12000 2501.000
15.16000 2494.000
15.20000 2516.000
15.24000 2591.000
15.28000 2566.000
15.32000 2558.000
15.36000 2544.000
15.40000 2545.000
15.44000 2546.000
15.48000 2539.000
15.52000 2553.000
15.56000 2586.000
15.60000 2542.000
15.64000 2477.000
15.68000 2655.000
15.72000 2517.000
15.76000 2626.000
15.80000 2537.000
15.84000 2544.000
15.88000 2683.000
15.92000 2610.000
15.96000 2570.000
16.00000 2558.000
16.04000 2586.000
16.08000 2629.000
16.12000 2518.000
16.16000 2559.000
16.20000 2704.000
16.24000 2718.000
16.28000 2559.000
16.32000 2634.000
16.36000 2646.000
16.40000 2672.000
16.44000 2669.000
16.48000 2691.000
16.52000 2639.000
16.56000 2630.000
16.60000 2715.000
16.64000 2733.000
16.68000 2694.000
16.72000 2704.000
16.76000 2694.000
16.80000 2713.000
16.84000 2831.000
16.88000 2734.000
16.92000 2809.000
16.96000 2757.000
17.00000 2826.000
17.04000 2679.000
17.08000 2747.000
17.12000 2779.000
17.16000 2804.000
17.20000 2783.000
17.24000 2829.000
17.28000 2751.000
17.32000 2736.000
17.36000 2804.000
17.40000 2824.000
17.44000 2871.000
17.48000 2798.000
17.52000 2831.000
17.56000 2778.000
17.60000 2820.000
17.64000 2691.000
17.68000 2733.000
17.72000 2849.000
17.76000 2808.000
17.80000 2863.000
17.84000 2852.000
17.88000 3056.000
17.92000 2915.000
17.96000 2921.000
18.00000 2854.000
18.04000 2913.000
18.08000 2853.000
18.12000 2827.000
18.16000 2831.000
18.20000 2864.000
18.24000 2946.000
18.28000 2924.000
18.32000 2914.000
18.36000 2904.000
18.40000 2900.000
18.44000 2904.000
18.48000 3017.000
18.52000 2949.000
18.56000 2948.000
18.60000 2955.000
18.64000 2963.000
18.68000 3017.000
18.72000 3053.000
18.76000 2988.000
18.80000 3065.000
18.84000 3062.000
18.88000 3006.000
18.92000 3024.000
18.96000 2995.000
19.00000 3113.000
19.04000 3065.000
19.08000 3086.000
19.12000 3125.000
19.16000 3031.000
19.20000 3060.000
19.24000 3108.000
19.28000 3127.000
19.32000 3050.000
19.36000 3068.000
19.40000 3085.000
19.44000 3113.000
19.48000 3132.000
19.52000 3142.000
19.56000 3170.000
19.60000 3084.000
19.64000 3015.000
19.68000 3057.000
19.72000 3150.000
19.76000 3189.000
19.80000 3262.000
19.84000 3170.000
19.88000 3252.000
19.92000 3176.000
19.96000 3272.000
20.00000 3330.000
20.04000 3139.000
20.08000 3192.000
20.12000 3279.000
20.16000 3270.000
20.20000 3173.000
20.24000 3195.000
20.28000 3192.000
20.32000 3216.000
20.36000 3202.000
20.40000 3248.000
20.44000 3492.000
20.48000 3361.000
20.52000 3358.000
20.56000 3460.000
20.60000 3715.000
20.64000 3829.000
20.68000 4334.000
20.72000 4858.000
20.76000 5769.000
20.80000 6059.000
20.84000 6386.000
20.88000 6615.000
20.92000 6362.000
20.96000 6087.000
21.00000 5488.000
21.04000 5077.000
21.08000 4282.000
21.12000 3978.000
21.16000 3723.000
21.20000 3509.000
21.24000 3434.000
21.28000 3413.000
21.32000 3447.000
21.36000 3455.000
21.40000 3388.000
21.44000 3362.000
21.48000 3555.000
21.52000 3418.000
21.56000 3467.000
21.60000 3401.000
21.64000 3526.000
21.68000 3355.000
21.72000 3480.000
21.76000 3468.000
21.80000 3419.000
21.84000 3451.000
21.88000 3453.000
21.92000 3331.000
21.96000 3500.000
22.00000 3376.000
22.04000 3380.000
22.08000 3412.000
22.12000 3446.000
22.16000 3502.000
22.20000 3374.000
22.24000 3458.000
22.28000 3350.000
22.32000 3371.000
22.36000 3416.000
22.40000 3407.000
22.44000 3407.000
22.48000 3364.000
22.52000 3514.000
22.56000 3492.000
22.60000 3348.000
22.64000 3425.000
22.68000 3448.000
22.72000 3390.000
22.76000 3517.000
22.80000 3462.000
22.84000 3434.000
22.88000 3502.000
22.92000 3447.000
22.96000 3471.000
23.00000 3485.000
23.04000 3427.000
23.08000 3573.000
23.12000 3709.000
23.16000 3557.000
23.20000 3547.000
23.24000 3450.000
23.28000 3485.000
23.32000 3637.000
23.36000 3480.000
23.40000 3443.000
23.44000 3526.000
23.48000 3600.000
23.52000 3509.000
23.56000 3548.000
23.60000 3591.000
23.64000 3555.000
23.68000 3655.000
23.72000 3719.000
23.76000 3763.000
23.80000 3752.000
23.84000 4094.000
23.88000 4486.000
23.92000 5507.000
23.96000 7607.000
24.00000 10345.000
24.04000 13818.000
24.08000 16816.000
24.12000 18429.000
24.16000 18985.000
24.20000 18559.000
24.24000 17031.000
24.28000 14701.000
24.32000 11976.000
24.36000 9020.000
24.40000 6443.000
24.44000 4755.000
24.48000 4002.000
24.52000 3641.000
24.56000 3722.000
24.60000 3550.000
24.64000 3527.000
24.68000 3512.000
24.72000 3367.000
24.76000 3474.000
24.80000 3385.000
24.84000 3342.000
24.88000 3427.000
24.92000 3260.000
24.96000 3433.000
25.00000 3436.000
25.04000 3463.000
25.08000 3338.000
25.12000 3361.000
25.16000 3442.000
25.20000 3324.000
25.24000 3405.000
25.28000 3291.000
25.32000 3271.000
25.36000 3343.000
25.40000 3345.000
25.44000 3356.000
25.48000 3347.000
25.52000 3392.000
25.56000 3371.000
25.60000 3364.000
25.64000 3298.000
25.68000 3332.000
25.72000 3566.000
25.76000 3510.000
25.80000 3512.000
25.84000 3512.000
25.88000 3482.000
25.92000 3415.000
25.96000 3407.000
26.00000 3454.000
26.04000 3281.000
26.08000 3226.000
26.12000 3265.000
26.16000 3300.000
26.20000 3227.000
26.24000 3192.000
26.28000 3211.000
26.32000 3249.000
26.36000 3151.000
26.40000 3149.000
26.44000 3152.000
26.48000 3105.000
26.52000 3162.000
26.56000 3200.000
26.60000 3181.000
26.64000 3158.000
26.68000 3101.000
26.72000 3132.000
26.76000 3208.000
26.80000 3034.000
26.84000 3080.000
26.88000 3006.000
26.92000 3061.000
26.96000 3176.000
27.00000 3015.000
27.04000 3051.000
27.08000 3046.000
27.12000 3094.000
27.16000 3083.000
27.20000 3087.000
27.24000 2998.000
27.28000 3011.000
27.32000 2996.000
27.36000 3091.000
27.40000 3065.000
27.44000 3058.000
27.48000 3046.000
27.52000 3042.000
27.56000 2998.000
27.60000 2946.000
27.64000 2958.000
27.68000 3015.000
27.72000 2811.000
27.76000 2944.000
27.80000 2993.000
27.84000 2927.000
27.88000 2964.000
27.92000 3047.000
27.96000 2918.000
28.00000 2899.000
28.04000 2983.000
28.08000 2931.000
28.12000 3008.000
28.16000 2858.000
28.20000 2998.000
28.24000 2964.000
28.28000 2886.000
28.32000 2865.000
28.36000 2866.000
28.40000 2868.000
28.44000 2853.000
28.48000 2798.000
28.52000 2903.000
28.56000 2891.000
28.60000 2837.000
28.64000 2893.000
28.68000 2856.000
28.72000 2835.000
28.76000 2793.000
28.80000 2831.000
28.84000 2854.000
28.88000 2831.000
28.92000 2892.000
28.96000 2776.000
29.00000 2711.000
29.04000 2816.000
29.08000 2740.000
29.12000 2769.000
29.16000 2773.000
29.20000 2815.000
29.24000 2788.000
29.28000 2764.000
29.32000 2806.000
29.36000 2785.000
29.40000 2737.000
29.44000 2821.000
29.48000 2744.000
29.52000 2779.000
29.56000 2657.000
29.60000 2764.000
29.64000 2801.000
29.68000 2750.000
29.72000 2791.000
29.76000 2758.000
29.80000 2680.000
29.84000 2742.000
29.88000 2655.000
29.92000 2682.000
29.96000 2667.000
30.00000 2722.000
30.04000 2679.000
30.08000 2639.000
30.12000 2649.000
30.16000 2678.000
30.20000 2657.000
30.24000 2641.000
30.28000 2675.000
30.32000 2735.000
30.36000 2623.000
30.40000 2727.000
30.44000 2592.000
30.48000 2582.000
30.52000 2526.000
30.56000 2542.000
30.60000 2610.000
30.64000 2571.000
30.68000 2583.000
30.72000 2483.000
30.76000 2504.000
30.80000 2501.000
30.84000 2485.000
30.88000 2549.000
30.92000 2502.000
30.96000 2555.000
31.00000 2552.000
31.04000 2589.000
31.08000 2540.000
31.12000 2497.000
31.16000 2691.000
31.20000 2450.000
31.24000 2493.000
31.28000 2459.000
31.32000 2538.000
31.36000 2512.000
31.40000 2631.000
31.44000 2670.000
31.48000 2805.000
31.52000 2894.000
31.56000 2970.000
31.60000 3103.000
31.64000 3171.000
31.68000 2977.000
31.72000 3033.000
31.76000 2865.000
31.80000 2716.000
31.84000 2738.000
31.88000 2623.000
31.92000 2475.000
31.96000 2471.000
32.00000 2358.000
32.04000 2409.000
32.08000 2308.000
32.12000 2403.000
32.16000 2274.000
32.20000 2329.000
32.24000 2365.000
32.28000 2274.000
32.32000 2261.000
32.36000 2279.000
32.40000 2365.000
32.44000 2268.000
32.48000 2266.000
32.52000 2295.000
32.56000 2166.000
32.60000 2356.000
32.64000 2248.000
32.68000 2332.000
32.72000 2255.000
32.76000 2263.000
32.80000 2207.000
32.84000 2206.000
32.88000 2149.000
32.92000 2093.000
32.96000 2147.000
33.00000 2165.000
33.04000 2149.000
33.08000 2174.000
33.12000 2132.000
33.16000 2122.000
33.20000 2179.000
33.24000 2129.000
33.28000 2101.000
33.32000 2171.000
33.36000 2015.000
33.40000 2056.000
33.44000 2124.000
33.48000 2105.000
33.52000 2132.000
33.56000 2082.000
33.60000 2079.000
33.64000 2017.000
33.68000 2039.000
33.72000 2058.000
33.76000 2100.000
33.80000 2096.000
33.84000 2006.000
33.88000 1988.000
33.92000 2007.000
33.96000 1927.000
34.00000 1990.000
34.04000 1982.000
34.08000 2004.000
34.12000 1926.000
34.16000 1938.000
34.20000 2019.000
34.24000 2018.000
34.28000 1983.000
34.32000 2042.000
34.36000 1998.000
34.40000 2086.000
34.44000 2081.000
34.48000 2055.000
34.52000 2004.000
34.56000 2034.000
34.60000 1948.000
34.64000 2003.000
34.68000 1909.000
34.72000 1870.000
34.76000 1855.000
34.80000 1872.000
34.84000 1860.000
34.88000 1838.000
34.92000 1807.000
34.96000 1825.000
35.00000 1735.000
35.04000 1765.000
35.08000 1752.000
35.12000 1784.000
35.16000 1768.000
35.20000 1794.000
35.24000 1740.000
35.28000 1759.000
35.32000 1748.000
35.36000 1754.000
35.40000 1793.000
35.44000 1669.000
35.48000 1774.000
35.52000 1716.000
35.56000 1699.000
35.60000 1685.000
35.64000 1733.000
35.68000 1715.000
35.72000 1699.000
35.76000 1671.000
35.80000 1597.000
35.84000 1623.000
35.88000 1657.000
35.92000 1708.000
35.96000 1624.000
36.00000 1597.000
36.04000 1610.000
36.08000 1640.000
36.12000 1615.000
36.16000 1595.000
36.20000 1574.000
36.24000 1611.000
36.28000 1568.000
36.32000 1602.000
36.36000 1572.000
36.40000 1561.000
36.44000 1587.000
36.48000 1581.000
36.52000 1552.000
36.56000 1566.000
36.60000 1482.000
36.64000 1577.000
36.68000 1557.000
36.72000 1628.000
36.76000 1531.000
36.80000 1480.000
36.84000 1497.000
36.88000 1489.000
36.92000 1457.000
36.96000 1607.000
37.00000 1514.000
37.04000 1459.000
37.08000 1487.000
37.12000 1464.000
37.16000 1513.000
37.20000 1459.000
37.24000 1402.000
37.28000 1414.000
37.32000 1450.000
37.36000 1505.000
37.40000 1421.000
37.44000 1486.000
37.48000 1402.000
37.52000 1455.000
37.56000 1370.000
37.60000 1395.000
37.64000 1443.000
37.68000 1386.000
37.72000 1404.000
37.76000 1429.000
37.80000 1453.000
37.84000 1441.000
37.88000 1403.000
37.92000 1394.000
37.96000 1395.000
38.00000 1403.000
38.04000 1384.000
38.08000 1417.000
38.12000 1407.000
38.16000 1409.000
38.20000 1411.000
38.24000 1317.000
38.28000 1447.000
38.32000 1392.000
38.36000 1389.000
38.40000 1385.000
38.44000 1414.000
38.48000 1373.000
38.52000 1377.000
38.56000 1337.000
38.60000 1416.000
38.64000 1455.000
38.68000 1355.000
38.72000 1343.000
38.76000 1344.000
38.80000 1395.000
38.84000 1336.000
38.88000 1405.000
38.92000 1339.000
38.96000 1307.000
39.00000 1308.000
39.04000 1319.000
39.08000 1339.000
39.12000 1323.000
39.16000 1297.000
39.20000 1368.000
39.24000 1306.000
39.28000 1401.000
39.32000 1316.000
39.36000 1310.000
39.40000 1329.000
39.44000 1360.000
39.48000 1282.000
39.52000 1323.000
39.56000 1346.000
39.60000 1328.000
39.64000 1278.000
39.68000 1381.000
39.72000 1328.000
39.76000 1340.000
39.80000 1311.000
39.84000 1333.000
39.88000 1323.000
39.92000 1281.000
39.96000 1327.000
40.00000 1334.000
40.04000 1332.000
40.08000 1318.000
40.12000 1394.000
40.16000 1369.000
40.20000 1306.000
40.24000 1337.000
40.28000 1371.000
40.32000 1311.000
40.36000 1339.000
40.40000 1372.000
40.44000 1351.000
40.48000 1332.000
40.52000 1326.000
40.56000 1396.000
40.60000 1305.000
40.64000 1386.000
40.68000 1357.000
40.72000 1322.000
40.76000 1302.000
40.80000 1368.000
40.84000 1312.000
40.88000 1350.000
40.92000 1308.000
40.96000 1341.000
41.00000 1376.000
41.04000 1305.000
41.08000 1372.000
41.12000 1289.000
41.16000 1307.000
41.20000 1320.000
41.24000 1319.000
41.28000 1345.000
41.32000 1309.000
41.36000 1325.000
41.40000 1337.000
41.44000 1267.000
41.48000 1364.000
41.52000 1349.000
41.56000 1382.000
41.60000 1284.000
41.64000 1282.000
41.68000 1298.000
41.72000 1362.000
41.76000 1331.000
41.80000 1383.000
41.84000 1404.000
41.88000 1410.000
41.92000 1377.000
41.96000 1320.000
42.00000 1388.000
42.04000 1413.000
42.08000 1421.000
42.12000 1407.000
42.16000 1525.000
42.20000 1572.000
42.24000 1821.000
42.28000 2061.000
42.32000 2835.000
42.36000 3640.000
42.40000 4705.000
42.44000 5661.000
42.48000 6901.000
42.52000 7516.000
42.56000 8070.000
42.60000 7781.000
42.64000 7345.000
42.68000 6467.000
42.72000 5225.000
42.76000 4288.000
42.80000 3281.000
42.84000 2595.000
42.88000 2028.000
42.92000 1776.000
42.96000 1579.000
43.00000 1547.000
43.04000 1509.000
43.08000 1454.000
43.12000 1435.000
43.16000 1449.000
43.20000 1474.000
43.24000 1390.000
43.28000 1343.000
43.32000 1268.000
43.36000 1371.000
43.40000 1336.000
43.44000 1280.000
43.48000 1293.000
43.52000 1334.000
43.56000 1339.000
43.60000 1327.000
43.64000 1321.000
43.68000 1273.000
43.72000 1278.000
43.76000 1301.000
43.80000 1362.000
43.84000 1323.000
43.88000 1318.000
43.92000 1307.000
43.96000 1223.000
44.00000 1343.000
44.04000 1215.000
44.08000 1297.000
44.12000 1259.000
44.16000 1251.000
44.20000 1302.000
44.24000 1273.000
44.28000 1298.000
44.32000 1291.000
44.36000 1241.000
44.40000 1288.000
44.44000 1265.000
44.48000 1256.000
44.52000 1266.000
44.56000 1235.000
44.60000 1241.000
44.64000 1279.000
44.68000 1248.000
44.72000 1263.000
44.76000 1230.000
44.80000 1194.000
44.84000 1277.000
44.88000 1270.000
44.92000 1249.000
44.96000 1248.000
45.00000 1294.000
45.04000 1221.000
45.08000 1195.000
45.12000 1280.000
45.16000 1204.000
45.20000 1172.000
45.24000 1217.000
45.28000 1203.000
45.32000 1245.000
45.36000 1250.000
45.40000 1299.000
45.44000 1167.000
45.48000 1181.000
45.52000 1277.000
45.56000 1233.000
45.60000 1199.000
45.64000 1197.000
45.68000 1230.000
45.72000 1248.000
45.76000 1203.000
45.80000 1211.000
45.84000 1246.000
45.88000 1171.000
45.92000 1186.000
45.96000 1239.000
46.00000 1159.000
46.04000 1149.000
46.08000 1200.000
46.12000 1244.000
46.16000 1182.000
46.20000 1156.000
46.24000 1161.000
46.28000 1150.000
46.32000 1174.000
46.36000 1164.000
46.40000 1171.000
46.44000 1184.000
46.48000 1190.000
46.52000 1208.000
46.56000 1189.000
46.60000 1169.000
46.64000 1166.000
46.68000 1130.000
46.72000 1171.000
46.76000 1192.000
46.80000 1183.000
46.84000 1172.000
46.88000 1092.000
46.92000 1157.000
46.96000 1173.000
47.00000 1167.000
47.04000 1098.000
47.08000 1160.000
47.12000 1173.000
47.16000 1144.000
47.20000 1184.000
47.24000 1156.000
47.28000 1180.000
47.32000 1176.000
47.36000 1145.000
47.40000 1217.000
47.44000 1115.000
47.48000 1153.000
47.52000 1100.000
47.56000 1145.000
47.60000 1106.000
47.64000 1122.000
47.68000 1161.000
47.72000 1157.000
47.76000 1075.000
47.80000 1144.000
47.84000 1173.000
47.88000 1157.000
47.92000 1122.000
47.96000 1102.000
48.00000 1119.000
48.04000 1086.000
48.08000 1114.000
48.12000 1127.000
48.16000 1098.000
48.20000 1130.000
48.24000 1130.000
48.28000 1113.000
48.32000 1157.000
48.36000 1119.000
48.40000 1117.000
48.44000 1140.000
48.48000 1102.000
48.52000 1098.000
48.56000 1110.000
48.60000 1045.000
48.64000 1095.000
48.68000 1090.000
48.72000 1068.000
48.76000 1122.000
48.80000 1097.000
48.84000 1164.000
48.88000 1150.000
48.92000 1076.000
48.96000 1151.000
49.00000 1122.000
49.04000 1103.000
49.08000 1090.000
49.12000 1092.000
49.16000 1116.000
49.20000 1081.000
49.24000 1196.000
49.28000 1217.000
49.32000 1296.000
49.36000 1459.000
49.40000 1685.000
49.44000 2002.000
49.48000 2286.000
49.52000 2374.000
49.56000 2453.000
49.60000 2562.000
49.64000 2318.000
49.68000 2254.000
49.72000 1976.000
49.76000 1651.000
49.80000 1449.000
49.84000 1328.000
49.88000 1237.000
49.92000 1131.000
49.96000 1157.000
50.00000 1124.000
50.04000 1081.000
50.08000 1106.000
50.12000 1066.000
50.16000 1070.000
50.20000 1059.000
50.24000 1079.000
50.28000 1039.000
50.32000 1057.000
50.36000 1048.000
50.40000 1034.000
50.44000 1003.000
50.48000 1047.000
50.52000 1019.000
50.56000 1070.000
50.60000 1029.000
50.64000 1123.000
50.68000 1130.000
50.72000 1018.000
50.76000 1129.000
50.80000 1037.000
50.84000 1022.000
50.88000 1032.000
50.92000 1054.000
50.96000 1032.000
51.00000 1019.000
51.04000 1082.000
51.08000 1052.000
51.12000 1070.000
51.16000 1029.000
51.20000 1067.000
51.24000 1067.000
51.28000 1057.000
51.32000 1051.000
51.36000 1026.000
51.40000 1018.000
51.44000 1058.000
51.48000 1055.000
51.52000 985.000
51.56000 1062.000
51.60000 1071.000
51.64000 1045.000
51.68000 1057.000
51.72000 1038.000
51.76000 1091.000
51.80000 1031.000
51.84000 1053.000
51.88000 1046.000
51.92000 1022.000
51.96000 1071.000
52.00000 1030.000
52.04000 1073.000
52.08000 1068.000
52.12000 1055.000
52.16000 1059.000
52.20000 1071.000
52.24000 966.000
52.28000 1002.000
52.32000 1044.000
52.36000 1029.000
52.40000 1097.000
52.44000 1104.000
52.48000 1044.000
52.52000 1039.000
52.56000 1040.000
52.60000 1058.000
52.64000 1018.000
52.68000 996.000
52.72000 1053.000
52.76000 1053.000
52.80000 1041.000
52.84000 1040.000
52.88000 1078.000
52.92000 1021.000
52.96000 1014.000
53.00000 1028.000
53.04000 1032.000
53.08000 979.000
53.12000 1052.000
53.16000 1010.000
53.20000 1013.000
53.24000 1071.000
53.28000 1041.000
53.32000 1069.000
53.36000 971.000
53.40000 1067.000
53.44000 1016.000
53.48000 1022.000
53.52000 1040.000
53.56000 992.000
53.60000 989.000
53.64000 1080.000
53.68000 1044.000
53.72000 1023.000
53.76000 1011.000
53.80000 1043.000
53.84000 1021.000
53.88000 1041.000
53.92000 1065.000
53.96000 967.000
54.00000 1049.000
54.04000 970.000
54.08000 1059.000
54.12000 1009.000
54.16000 1032.000
54.20000 997.000
54.24000 1000.000
54.28000 1080.000
54.32000 1007.000
54.36000 1050.000
54.40000 1017.000
54.44000 1012.000
54.48000 1076.000
54.52000 1052.000
54.56000 1047.000
54.60000 1035.000
54.64000 1013.000
54.68000 1005.000
54.72000 1022.000
54.76000 1049.000
54.80000 1028.000
54.84000 1016.000
54.88000 976.000
54.92000 1068.000
54.96000 1020.000
55.00000 1008.000
55.04000 1046.000
55.08000 998.000
55.12000 1018.000
55.16000 1077.000
55.20000 943.000
55.24000 1027.000
55.28000 1056.000
55.32000 961.000
55.36000 996.000
55.40000 1060.000
55.44000 1001.000
55.48000 1015.000
55.52000 1076.000
55.56000 1023.000
55.60000 1037.000
55.64000 1000.000
55.68000 1051.000
55.72000 1050.000
55.76000 1079.000
55.80000 1019.000
55.84000 1021.000
55.88000 1089.000
55.92000 1061.000
55.96000 1064.000
56.00000 1042.000
56.04000 1058.000
56.08000 1050.000
56.12000 1035.000
56.16000 1035.000
56.20000 1017.000
56.24000 1043.000
56.28000 1023.000
56.32000 1024.000
56.36000 990.000
56.40000 1041.000
56.44000 1053.000
56.48000 986.000
56.52000 1011.000
56.56000 949.000
56.60000 984.000
56.64000 1046.000
56.68000 1053.000
56.72000 997.000
56.76000 1002.000
56.80000 1045.000
56.84000 999.000
56.88000 966.000
56.92000 991.000
56.96000 1019.000
57.00000 1036.000
57.04000 943.000
57.08000 1031.000
57.12000 1029.000
57.16000 942.000
57.20000 987.000
57.24000 996.000
57.28000 1047.000
57.32000 1020.000
57.36000 997.000
57.40000 1019.000
57.44000 999.000
57.48000 1022.000
57.52000 1004.000
57.56000 1024.000
57.60000 1095.000
57.64000 999.000
57.68000 962.000
57.72000 1073.000
57.76000 1000.000
57.80000 1006.000
57.84000 987.000
57.88000 1018.000
57.92000 965.000
57.96000 990.000
58.00000 1048.000
58.04000 977.000
58.08000 1021.000
58.12000 1003.000
58.16000 1009.000
58.20000 999.000
58.24000 972.000
58.28000 1016.000
58.32000 1052.000
58.36000 1069.000
58.40000 978.000
58.44000 1052.000
58.48000 1064.000
58.52000 1058.000
58.56000 975.000
58.60000 1029.000
58.64000 1038.000
58.68000 1040.000
58.72000 1090.000
58.76000 1043.000
58.80000 956.000
58.84000 1034.000
58.88000 1012.000
58.92000 1017.000
58.96000 985.000
59.00000 979.000
59.04000 1002.000
59.08000 1043.000
59.12000 985.000
59.16000 965.000
59.20000 1010.000
59.24000 1005.000
59.28000 1085.000
59.32000 997.000
59.36000 1033.000
59.40000 1028.000
59.44000 1051.000
59.48000 1004.000
59.52000 1007.000
59.56000 981.000
59.60000 1035.000
59.64000 1008.000
59.68000 1033.000
59.72000 997.000
59.76000 942.000
59.80000 993.000
59.84000 985.000
59.88000 962.000
59.92000 1017.000
59.96000 1011.000
60.00000 971.000
60.04000 1009.000
60.08000 1039.000
60.12000 1071.000
60.16000 1006.000
60.20000 985.000
60.24000 983.000
60.28000 1022.000
60.32000 986.000
60.36000 989.000
60.40000 1063.000
60.44000 1005.000
60.48000 1031.000
60.52000 1012.000
60.56000 1025.000
60.60000 950.000
60.64000 977.000
60.68000 997.000
60.72000 1010.000
60.76000 979.000
60.80000 951.000
60.84000 1040.000
60.88000 1013.000
60.92000 972.000
60.96000 969.000
61.00000 980.000
61.04000 1032.000
61.08000 986.000
61.12000 982.000
61.16000 1030.000
61.20000 1011.000
61.24000 970.000
61.28000 1058.000
61.32000 1039.000
61.36000 1029.000
61.40000 984.000
61.44000 1046.000
61.48000 1028.000
61.52000 977.000
61.56000 1063.000
61.60000 1061.000
61.64000 1043.000
61.68000 1014.000
61.72000 1021.000
61.76000 1088.000
61.80000 1033.000
61.84000 1072.000
61.88000 1059.000
61.92000 1055.000
61.96000 994.000
62.00000 1053.000
62.04000 1017.000
62.08000 1017.000
62.12000 985.000
62.16000 1023.000
62.20000 962.000
62.24000 999.000
62.28000 996.000
62.32000 951.000
62.36000 975.000
62.40000 966.000
62.44000 1050.000
62.48000 997.000
62.52000 955.000
62.56000 1037.000
62.60000 995.000
62.64000 963.000
62.68000 919.000
62.72000 963.000
62.76000 1049.000
62.80000 1013.000
62.84000 1042.000
62.88000 972.000
62.92000 948.000
62.96000 1033.000
63.00000 990.000
63.04000 1017.000
63.08000 969.000
63.12000 958.000
63.16000 993.000
63.20000 999.000
63.24000 1003.000
63.28000 1017.000
63.32000 999.000
63.36000 1030.000
63.40000 1050.000
63.44000 945.000
63.48000 971.000
63.52000 1027.000
63.56000 974.000
63.60000 966.000
63.64000 968.000
63.68000 979.000
63.72000 979.000
63.76000 973.000
63.80000 1012.000
63.84000 950.000
63.88000 977.000
63.92000 1026.000
63.96000 931.000
64.00000 993.000
64.04000 963.000
64.08000 1007.000
64.12000 934.000
64.16000 974.000
64.20000 973.000
64.24000 1039.000
64.28000 989.000
64.32000 1020.000
64.36000 991.000
64.40000 980.000
64.44000 977.000
64.48000 947.000
64.52000 908.000
64.56000 931.000
64.60000 985.000
64.64000 980.000
64.68000 920.000
64.72000 961.000
64.76000 917.000
64.80000 903.000
64.84000 957.000
64.88000 1004.000
64.92000 988.000
64.96000 902.000
65.00000 968.000
65.04000 936.000
65.08000 909.000
65.12000 950.000
65.16000 1010.000
65.20000 1006.000
65.24000 935.000
65.28000 941.000
65.32000 931.000
65.36000 977.000
65.40000 984.000
65.44000 1008.000
65.48000 984.000
65.52000 897.000
65.56000 954.000
65.60000 972.000
65.64000 949.000
65.68000 938.000
65.72000 976.000
65.76000 963.000
65.80000 1025.000
65.84000 933.000
65.88000 1034.000
65.92000 1001.000
65.96000 1043.000
66.00000 985.000
66.04000 1005.000
66.08000 974.000
66.12000 1012.000
66.16000 997.000
66.20000 1003.000
66.24000 1014.000
66.28000 1030.000
66.32000 971.000
66.36000 963.000
66.40000 983.000
66.44000 963.000
66.48000 922.000
66.52000 845.000
66.56000 963.000
66.60000 945.000
66.64000 941.000
66.68000 871.000
66.72000 914.000
66.76000 886.000
66.80000 948.000
66.84000 900.000
66.88000 1013.000
66.92000 912.000
66.96000 863.000
67.00000 858.000
67.04000 895.000
67.08000 903.000
67.12000 917.000
67.16000 894.000
67.20000 943.000
67.24000 919.000
67.28000 940.000
67.32000 908.000
67.36000 881.000
67.40000 879.000
67.44000 863.000
67.48000 846.000
67.52000 940.000
67.56000 935.000
67.60000 902.000
67.64000 938.000
67.68000 895.000
67.72000 894.000
67.76000 884.000
67.80000 898.000
67.84000 835.000
67.88000 876.000
67.92000 942.000
67.96000 860.000
68.00000 852.000
68.04000 900.000
68.08000 905.000
68.12000 900.000
68.16000 869.000
68.20000 865.000
68.24000 850.000
68.28000 821.000
68.32000 876.000
68.36000 870.000
68.40000 924.000
68.44000 903.000
68.48000 852.000
68.52000 916.000
68.56000 936.000
68.60000 847.000
68.64000 876.000
68.68000 874.000
68.72000 910.000
68.76000 919.000
68.80000 861.000
68.84000 865.000
68.88000 838.000
68.92000 835.000
68.96000 946.000
69.00000 885.000
69.04000 873.000
69.08000 850.000
69.12000 861.000
69.16000 818.000
69.20000 847.000
69.24000 862.000
69.28000 851.000
69.32000 853.000
69.36000 888.000
69.40000 836.000
69.44000 807.000
69.48000 863.000
69.52000 879.000
69.56000 874.000
69.60000 904.000
69.64000 841.000
69.68000 895.000
69.72000 852.000
69.76000 894.000
69.80000 898.000
69.84000 772.000
69.88000 850.000
69.92000 844.000
