5.00000 4882.000
5.04000 4695.000
5.08000 4830.000
5.12000 4637.000
5.16000 4644.000
5.20000 4585.000
5.24000 4701.000
5.28000 4445.000
5.32000 4545.000
5.36000 4517.000
5.40000 4428.000
5.44000 4392.000
5.48000 4369.000
5.52000 4317.000
5.56000 4251.000
5.60000 4365.000
5.64000 4186.000
5.68000 4237.000
5.72000 4151.000
5.76000 4114.000
5.80000 4109.000
5.84000 4010.000
5.88000 3973.000
5.92000 4048.000
5.96000 3974.000
6.00000 3997.000
6.04000 3953.000
6.08000 4004.000
6.12000 3904.000
6.16000 3878.000
6.20000 3936.000
6.24000 3880.000
6.28000 3838.000
6.32000 3815.000
6.36000 3794.000
6.40000 3874.000
6.44000 3709.000
6.48000 3813.000
6.52000 3565.000
6.56000 3620.000
6.60000 3524.000
6.64000 3556.000
6.68000 3483.000
6.72000 3636.000
6.76000 3506.000
6.80000 3380.000
6.84000 3452.000
6.88000 3336.000
6.92000 3365.000
6.96000 3310.000
7.00000 3331.000
7.04000 3226.000
7.08000 3254.000
7.12000 3192.000
7.16000 3288.000
7.20000 3139.000
7.24000 3239.000
7.28000 3166.000
7.32000 3221.000
7.36000 3098.000
7.40000 3253.000
7.44000 3054.000
7.48000 3017.000
7.52000 3017.000
7.56000 3056.000
7.60000 3071.000
7.64000 3054.000
7.68000 2990.000
7.72000 2957.000
7.76000 2934.000
7.80000 2910.000
7.84000 2984.000
7.88000 2865.000
7.92000 2928.000
7.96000 2930.000
8.00000 3021.000
8.04000 2871.000
8.08000 2880.000
8.12000 2837.000
8.16000 2876.000
8.20000 2876.000
8.24000 2931.000
8.28000 2886.000
8.32000 2751.000
8.36000 2825.000
8.40000 2879.000
8.44000 2755.000
8.48000 2746.000
8.52000 2746.000
8.56000 2743.000
8.60000 2708.000
8.64000 2689.000
8.68000 2581.000
8.72000 2708.000
8.76000 2535.000
8.80000 2573.000
8.84000 2624.000
8.88000 2566.000
8.92000 2604.000
8.96000 2622.000
9.00000 2573.000
9.04000 2555.000
9.08000 2565.000
9.12000 2522.000
9.16000 2427.000
9.20000 2527.000
9.24000 2402.000
9.28000 2442.000
9.32000 2493.000
9.36000 2449.000
9.40000 2479.000
9.44000 2398.000
9.48000 2479.000
9.52000 2423.000
9.56000 2367.000
9.60000 2398.000
9.64000 2281.000
9.68000 2382.000
9.72000 2413.000
9.76000 2342.000
9.80000 2348.000
9.84000 2334.000
9.88000 2418.000
9.92000 2306.000
9.96000 2256.000
10.00000 2288.000
10.04000 2276.000
10.08000 2350.000
10.12000 2166.000
10.16000 2242.000
10.20000 2314.000
10.24000 2219.000
10.28000 2201.000
10.32000 2320.000
10.36000 2211.000
10.40000 2316.000
10.44000 2264.000
10.48000 2246.000
10.52000 2222.000
10.56000 2220.000
10.60000 2212.000
10.64000 2194.000
10.68000 2191.000
10.72000 2234.000
10.76000 2144.000
10.80000 2250.000
10.84000 2147.000
10.88000 2100.000
10.92000 2078.000
10.96000 2158.000
11.00000 2208.000
11.04000 2117.000
11.08000 2136.000
11.12000 2180.000
11.16000 2119.000
11.20000 2106.000
11.24000 2165.000
11.28000 2108.000
11.32000 2085.000
11.36000 2205.000
11.40000 2094.000
11.44000 2121.000
11.48000 2036.000
11.52000 2058.000
11.56000 2146.000
11.60000 2039.000
11.64000 2071.000
11.68000 2191.000
11.72000 2056.000
11.76000 2043.000
11.80000 2085.000
11.84000 2120.000
11.88000 2153.000
11.92000 2191.000
11.96000 2144.000
12.00000 2260.000
12.04000 2261.000
12.08000 2290.000
12.12000 2277.000
12.16000 2295.000
12.20000 2259.000
12.24000 2139.000
12.28000 2178.000
12.32000 2153.000
12.36000 2067.000
12.40000 2119.000
12.44000 2004.000
12.48000 2078.000
12.52000 2117.000
12.56000 2107.000
12.60000 2061.000
12.64000 2109.000
12.68000 2173.000
12.72000 2209.000
12.76000 2298.000
12.80000 2295.000
12.84000 2279.000
12.88000 2190.000
12.92000 2269.000
12.96000 2193.000
13.00000 2191.000
13.04000 2147.000
13.08000 2099.000
13.12000 2083.000
13.16000 2101.000
13.20000 2120.000
13.24000 2054.000
13.28000 2068.000
13.32000 1990.000
13.36000 2049.000
13.40000 2082.000
13.44000 2011.000
13.48000 2071.000
13.52000 2068.000
13.56000 2052.000
13.60000 2075.000
13.64000 2107.000
13.68000 2120.000
13.72000 2113.000
13.76000 1991.000
13.80000 2043.000
13.84000 2022.000
13.88000 2129.000
13.92000 1999.000
13.96000 2057.000
14.00000 2026.000
14.04000 2010.000
14.08000 2029.000
14.12000 2187.000
14.16000 2028.000
14.20000 2123.000
14.24000 2059.000
14.28000 2100.000
14.32000 2078.000
14.36000 2177.000
14.40000 2045.000
14.44000 2102.000
14.48000 2125.000
14.52000 2054.000
14.56000 2124.000
14.60000 2170.000
14.64000 2129.000
14.68000 2175.000
14.72000 2155.000
14.76000 2134.000
14.80000 2202.000
14.84000 2271.000
14.88000 2295.000
14.92000 2304.000
14.96000 2326.000
15.00000 2431.000
15.04000 2476.000
15.08000 2489.000
15.12000 2486.000
15.16000 2465.000
15.20000 2466.000
15.24000 2260.000
15.28000 2245.000
15.32000 2183.000
15.36000 2101.000
15.40000 2144.000
15.44000 2070.000
15.48000 2142.000
15.52000 2157.000
15.56000 2180.000
15.60000 2096.000
15.64000 2204.000
15.68000 2027.000
15.72000 2112.000
15.76000 2116.000
15.80000 2051.000
15.84000 2154.000
15.88000 2125.000
15.92000 2160.000
15.96000 2135.000
16.00000 2144.000
16.04000 2175.000
16.08000 2177.000
16.12000 2124.000
16.16000 2241.000
16.20000 2128.000
16.24000 2154.000
16.28000 2195.000
16.32000 2226.000
16.36000 2223.000
16.40000 2144.000
16.44000 2158.000
16.48000 2240.000
16.52000 2118.000
16.56000 2238.000
16.60000 2248.000
16.64000 2269.000
16.68000 2413.000
16.72000 2375.000
16.76000 2420.000
16.80000 2612.000
16.84000 2473.000
16.88000 2499.000
16.92000 2591.000
16.96000 2484.000
17.00000 2452.000
17.04000 2554.000
17.08000 2519.000
17.12000 2420.000
17.16000 2394.000
17.20000 2313.000
17.24000 2399.000
17.28000 2283.000
17.32000 2297.000
17.36000 2339.000
17.40000 2353.000
17.44000 2381.000
17.48000 2338.000
17.52000 2373.000
17.56000 2273.000
17.60000 2446.000
17.64000 2354.000
17.68000 2392.000
17.72000 2418.000
17.76000 2460.000
17.80000 2398.000
17.84000 2456.000
17.88000 2543.000
17.92000 2546.000
17.96000 2554.000
18.00000 2613.000
18.04000 2745.000
18.08000 2925.000
18.12000 3160.000
18.16000 3624.000
18.20000 4021.000
18.24000 4373.000
18.28000 4575.000
18.32000 4855.000
18.36000 4955.000
18.40000 4820.000
18.44000 4469.000
18.48000 4220.000
18.52000 3827.000
18.56000 3513.000
18.60000 3187.000
18.64000 2878.000
18.68000 2812.000
18.72000 2705.000
18.76000 2635.000
18.80000 2665.000
18.84000 2693.000
18.88000 2689.000
18.92000 2684.000
18.96000 2692.000
19.00000 2770.000
19.04000 2619.000
19.08000 2828.000
19.12000 2854.000
19.16000 2980.000
19.20000 2988.000
19.24000 2913.000
19.28000 2895.000
19.32000 3036.000
19.36000 2830.000
19.40000 2790.000
19.44000 2799.000
19.48000 2819.000
19.52000 2775.000
19.56000 2744.000
19.60000 2833.000
19.64000 2752.000
19.68000 2655.000
19.72000 2778.000
19.76000 2646.000
19.80000 2895.000
19.84000 2882.000
19.88000 2705.000
19.92000 2805.000
19.96000 2785.000
20.00000 2795.000
20.04000 2909.000
20.08000 2856.000
20.12000 2751.000
20.16000 2899.000
20.20000 2876.000
20.24000 2873.000
20.28000 2858.000
20.32000 2911.000
20.36000 2996.000
20.40000 2961.000
20.44000 2937.000
20.48000 2928.000
20.52000 3003.000
20.56000 2977.000
20.60000 2900.000
20.64000 2969.000
20.68000 3041.000
20.72000 2952.000
20.76000 3041.000
20.80000 2951.000
20.84000 3063.000
20.88000 3125.000
20.92000 3185.000
20.96000 3267.000
21.00000 3105.000
21.04000 3122.000
21.08000 3210.000
21.12000 3205.000
21.16000 3130.000
21.20000 3194.000
21.24000 3222.000
21.28000 3140.000
21.32000 3154.000
21.36000 3071.000
21.40000 3163.000
21.44000 3212.000
21.48000 3267.000
21.52000 3164.000
21.56000 3192.000
21.60000 3210.000
21.64000 3156.000
21.68000 3143.000
21.72000 3150.000
21.76000 3193.000
21.80000 3116.000
21.84000 3203.000
21.88000 3208.000
21.92000 3292.000
21.96000 3220.000
22.00000 3131.000
22.04000 3258.000
22.08000 3138.000
22.12000 3193.000
22.16000 3274.000
22.20000 3242.000
22.24000 3250.000
22.28000 3247.000
22.32000 3237.000
22.36000 3302.000
22.40000 3304.000
22.44000 3222.000
22.48000 3261.000
22.52000 3248.000
22.56000 3388.000
22.60000 3266.000
22.64000 3239.000
22.68000 3299.000
22.72000 3282.000
22.76000 3313.000
22.80000 3442.000
22.84000 3304.000
22.88000 3264.000
22.92000 3263.000
22.96000 3510.000
23.00000 3365.000
23.04000 3451.000
23.08000 3387.000
23.12000 3441.000
23.16000 3347.000
23.20000 3291.000
23.24000 3353.000
23.28000 3369.000
23.32000 3548.000
23.36000 3368.000
23.40000 3422.000
23.44000 3501.000
23.48000 3407.000
23.52000 3440.000
23.56000 3432.000
23.60000 3421.000
23.64000 3562.000
23.68000 3604.000
23.72000 3570.000
23.76000 3593.000
23.80000 3682.000
23.84000 3670.000
23.88000 3680.000
23.92000 3646.000
23.96000 3696.000
24.00000 3670.000
24.04000 3695.000
24.08000 3641.000
24.12000 3599.000
24.16000 3688.000
24.20000 3815.000
24.24000 3789.000
24.28000 4059.000
24.32000 4049.000
24.36000 4384.000
24.40000 4783.000
24.44000 4953.000
24.48000 5168.000
24.52000 5469.000
24.56000 5361.000
24.60000 5307.000
24.64000 5150.000
24.68000 4908.000
24.72000 4684.000
24.76000 4523.000
24.80000 4184.000
24.84000 3994.000
24.88000 3857.000
24.92000 3791.000
24.96000 3889.000
25.00000 3853.000
25.04000 3889.000
25.08000 4022.000
25.12000 4214.000
25.16000 4370.000
25.20000 4831.000
25.24000 5464.000
25.28000 6220.000
25.32000 7426.000
25.36000 8583.000
25.40000 9792.000
25.44000 11203.000
25.48000 12007.000
25.52000 12848.000
25.56000 12585.000
25.60000 12083.000
25.64000 11058.000
25.68000 10020.000
25.72000 9102.000
25.76000 8144.000
25.80000 7270.000
25.84000 6481.000
25.88000 6145.000
25.92000 5663.000
25.96000 5264.000
26.00000 5029.000
26.04000 4696.000
26.08000 4441.000
26.12000 4306.000
26.16000 4153.000
26.20000 4253.000
26.24000 4210.000
26.28000 3963.000
26.32000 3876.000
26.36000 3782.000
26.40000 3638.000
26.44000 3540.000
26.48000 3475.000
26.52000 3353.000
26.56000 3402.000
26.60000 3310.000
26.64000 3310.000
26.68000 3280.000
26.72000 3296.000
26.76000 3319.000
26.80000 3382.000
26.84000 3347.000
26.88000 3217.000
26.92000 3421.000
26.96000 3456.000
27.00000 3420.000
27.04000 3318.000
27.08000 3350.000
27.12000 3232.000
27.16000 3275.000
27.20000 3405.000
27.24000 3292.000
27.28000 3252.000
27.32000 3361.000
27.36000 3288.000
27.40000 3330.000
27.44000 3301.000
27.48000 3381.000
27.52000 3369.000
27.56000 3519.000
27.60000 3362.000
27.64000 3404.000
27.68000 3358.000
27.72000 3273.000
27.76000 3316.000
27.80000 3303.000
27.84000 3221.000
27.88000 3214.000
27.92000 3213.000
27.96000 3179.000
28.00000 3295.000
28.04000 3197.000
28.08000 3202.000
28.12000 3125.000
28.16000 3055.000
28.20000 3096.000
28.24000 3132.000
28.28000 3079.000
28.32000 2952.000
28.36000 3123.000
28.40000 3079.000
28.44000 3062.000
28.48000 3066.000
28.52000 2989.000
28.56000 3029.000
28.60000 3094.000
28.64000 2967.000
28.68000 3043.000
28.72000 3003.000
28.76000 3041.000
28.80000 2956.000
28.84000 3001.000
28.88000 3062.000
28.92000 2988.000
28.96000 3082.000
29.00000 3081.000
29.04000 3029.000
29.08000 3105.000
29.12000 3036.000
29.16000 3010.000
29.20000 3115.000
29.24000 3098.000
29.28000 3151.000
29.32000 3140.000
29.36000 3057.000
29.40000 3015.000
29.44000 3032.000
29.48000 3025.000
29.52000 3282.000
29.56000 3368.000
29.60000 3297.000
29.64000 3389.000
29.68000 3528.000
29.72000 3613.000
29.76000 3686.000
29.80000 3833.000
29.84000 3896.000
29.88000 3880.000
29.92000 3689.000
29.96000 3506.000
30.00000 3444.000
30.04000 3384.000
30.08000 3230.000
30.12000 3033.000
30.16000 3005.000
30.20000 3012.000
30.24000 2936.000
30.28000 2973.000
30.32000 3079.000
30.36000 3286.000
30.40000 3484.000
30.44000 3731.000
30.48000 3781.000
30.52000 3811.000
30.56000 3812.000
30.60000 3760.000
30.64000 3645.000
30.68000 3578.000
30.72000 3457.000
30.76000 3250.000
30.80000 3083.000
30.84000 2996.000
30.88000 2995.000
30.92000 2817.000
30.96000 2743.000
31.00000 2784.000
31.04000 2649.000
31.08000 2754.000
31.12000 2691.000
31.16000 2683.000
31.20000 2555.000
31.24000 2622.000
31.28000 2623.000
31.32000 2608.000
31.36000 2593.000
31.40000 2519.000
31.44000 2544.000
31.48000 2547.000
31.52000 2571.000
31.56000 2541.000
31.60000 2598.000
31.64000 2517.000
31.68000 2573.000
31.72000 2515.000
31.76000 2491.000
31.80000 2457.000
31.84000 2548.000
31.88000 2536.000
31.92000 2470.000
31.96000 2464.000
32.00000 2459.000
32.04000 2490.000
32.08000 2470.000
32.12000 2436.000
32.16000 2481.000
32.20000 2527.000
32.24000 2517.000
32.28000 2369.000
32.32000 2457.000
32.36000 2412.000
32.40000 2469.000
32.44000 2417.000
32.48000 2479.000
32.52000 2430.000
32.56000 2490.000
32.60000 2442.000
32.64000 2401.000
32.68000 2372.000
32.72000 2337.000
32.76000 2436.000
32.80000 2450.000
32.84000 2324.000
32.88000 2362.000
32.92000 2301.000
32.96000 2384.000
33.00000 2289.000
33.04000 2312.000
33.08000 2351.000
33.12000 2325.000
33.16000 2299.000
33.20000 2272.000
33.24000 2169.000
33.28000 2212.000
33.32000 2169.000
33.36000 2186.000
33.40000 2215.000
33.44000 2207.000
33.48000 2160.000
33.52000 2116.000
33.56000 2144.000
33.60000 2172.000
33.64000 2175.000
33.68000 2138.000
33.72000 2148.000
33.76000 2147.000
33.80000 2091.000
33.84000 2122.000
33.88000 2177.000
33.92000 2219.000
33.96000 2048.000
34.00000 2015.000
34.04000 2099.000
34.08000 1965.000
34.12000 2046.000
34.16000 1982.000
34.20000 2048.000
34.24000 2072.000
34.28000 2009.000
34.32000 1996.000
34.36000 2017.000
34.40000 1997.000
34.44000 1984.000
34.48000 2048.000
34.52000 1943.000
34.56000 1949.000
34.60000 1930.000
34.64000 1931.000
34.68000 1937.000
34.72000 1920.000
34.76000 1828.000
34.80000 1886.000
34.84000 1817.000
34.88000 1897.000
34.92000 1910.000
34.96000 1919.000
35.00000 1885.000
35.04000 1843.000
35.08000 1851.000
35.12000 1882.000
35.16000 1814.000
35.20000 1829.000
35.24000 1879.000
35.28000 1801.000
35.32000 1862.000
35.36000 1838.000
35.40000 1813.000
35.44000 1796.000
35.48000 1830.000
35.52000 1825.000
35.56000 1819.000
35.60000 1797.000
35.64000 1860.000
35.68000 1872.000
35.72000 1789.000
35.76000 1850.000
35.80000 1796.000
35.84000 1865.000
35.88000 1722.000
35.92000 1768.000
35.96000 1733.000
36.00000 1761.000
36.04000 1732.000
36.08000 1714.000
36.12000 1731.000
36.16000 1669.000
36.20000 1660.000
36.24000 1686.000
36.28000 1700.000
36.32000 1672.000
36.36000 1668.000
36.40000 1743.000
36.44000 1678.000
36.48000 1598.000
36.52000 1641.000
36.56000 1640.000
36.60000 1610.000
36.64000 1618.000
36.68000 1607.000
36.72000 1546.000
36.76000 1620.000
36.80000 1677.000
36.84000 1627.000
36.88000 1557.000
36.92000 1606.000
36.96000 1545.000
37.00000 1573.000
37.04000 1612.000
37.08000 1586.000
37.12000 1465.000
37.16000 1554.000
37.20000 1610.000
37.24000 1568.000
37.28000 1557.000
37.32000 1571.000
37.36000 1522.000
37.40000 1528.000
37.44000 1515.000
37.48000 1514.000
37.52000 1487.000
37.56000 1558.000
37.60000 1448.000
37.64000 1471.000
37.68000 1516.000
37.72000 1518.000
37.76000 1493.000
37.80000 1546.000
37.84000 1459.000
37.88000 1537.000
37.92000 1393.000
37.96000 1477.000
38.00000 1544.000
38.04000 1484.000
38.08000 1457.000
38.12000 1478.000
38.16000 1479.000
38.20000 1402.000
38.24000 1401.000
38.28000 1469.000
38.32000 1448.000
38.36000 1449.000
38.40000 1480.000
38.44000 1401.000
38.48000 1437.000
38.52000 1431.000
38.56000 1403.000
38.60000 1445.000
38.64000 1486.000
38.68000 1510.000
38.72000 1545.000
38.76000 1460.000
38.80000 1465.000
38.84000 1492.000
38.88000 1562.000
38.92000 1485.000
38.96000 1500.000
39.00000 1558.000
39.04000 1577.000
39.08000 1527.000
39.12000 1621.000
39.16000 1715.000
39.20000 1805.000
39.24000 1893.000
39.28000 2068.000
39.32000 2113.000
39.36000 2007.000
39.40000 2036.000
39.44000 1925.000
39.48000 1854.000
39.52000 1773.000
39.56000 1394.000
39.60000 1543.000
39.64000 1461.000
39.68000 1527.000
39.72000 1464.000
39.76000 1520.000
39.80000 1491.000
39.84000 1493.000
39.88000 1477.000
39.92000 1435.000
39.96000 1440.000
40.00000 1509.000
40.04000 1497.000
40.08000 1513.000
40.12000 1446.000
40.16000 1363.000
40.20000 1503.000
40.24000 1419.000
40.28000 1513.000
40.32000 1454.000
40.36000 1433.000
40.40000 1459.000
40.44000 1390.000
40.48000 1504.000
40.52000 1365.000
40.56000 1419.000
40.60000 1452.000
40.64000 1426.000
40.68000 1474.000
40.72000 1475.000
40.76000 1526.000
40.80000 1395.000
40.84000 1395.000
40.88000 1394.000
40.92000 1429.000
40.96000 1434.000
41.00000 1402.000
41.04000 1379.000
41.08000 1378.000
41.12000 1461.000
41.16000 1470.000
41.20000 1427.000
41.24000 1424.000
41.28000 1406.000
41.32000 1423.000
41.36000 1397.000
41.40000 1405.000
41.44000 1456.000
41.48000 1475.000
41.52000 1475.000
41.56000 1461.000
41.60000 1426.000
41.64000 1445.000
41.68000 1470.000
41.72000 1432.000
41.76000 1503.000
41.80000 1403.000
41.84000 1398.000
41.88000 1391.000
41.92000 1400.000
41.96000 1462.000
42.00000 1406.000
42.04000 1480.000
42.08000 1377.000
42.12000 1511.000
42.16000 1422.000
42.20000 1493.000
42.24000 1454.000
42.28000 1455.000
42.32000 1462.000
42.36000 1519.000
42.40000 1537.000
42.44000 1524.000
42.48000 1551.000
42.52000 1593.000
42.56000 1558.000
42.60000 1653.000
42.64000 1613.000
42.68000 1627.000
42.72000 1602.000
42.76000 1662.000
42.80000 1603.000
42.84000 1661.000
42.88000 1726.000
42.92000 1736.000
42.96000 1631.000
43.00000 1697.000
43.04000 1697.000
43.08000 1828.000
43.12000 1663.000
43.16000 1648.000
43.20000 1625.000
43.24000 1628.000
43.28000 1605.000
43.32000 1523.000
43.36000 1545.000
43.40000 1497.000
43.44000 1494.000
43.48000 1437.000
43.52000 1416.000
43.56000 1412.000
43.60000 1385.000
43.64000 1395.000
43.68000 1372.000
43.72000 1369.000
43.76000 1415.000
43.80000 1361.000
43.84000 1330.000
43.88000 1416.000
43.92000 1434.000
43.96000 1382.000
44.00000 1372.000
44.04000 1309.000
44.08000 1367.000
44.12000 1370.000
44.16000 1375.000
44.20000 1345.000
44.24000 1410.000
44.28000 1393.000
44.32000 1308.000
44.36000 1326.000
44.40000 1396.000
44.44000 1342.000
44.48000 1369.000
44.52000 1339.000
44.56000 1345.000
44.60000 1357.000
44.64000 1350.000
44.68000 1367.000
44.72000 1332.000
44.76000 1336.000
44.80000 1364.000
44.84000 1361.000
44.88000 1304.000
44.92000 1329.000
44.96000 1389.000
45.00000 1358.000
45.04000 1339.000
45.08000 1339.000
45.12000 1371.000
45.16000 1320.000
45.20000 1377.000
45.24000 1323.000
45.28000 1303.000
45.32000 1342.000
45.36000 1320.000
45.40000 1313.000
45.44000 1371.000
45.48000 1369.000
45.52000 1314.000
45.56000 1317.000
45.60000 1381.000
45.64000 1332.000
45.68000 1381.000
45.72000 1303.000
45.76000 1325.000
45.80000 1370.000
45.84000 1351.000
45.88000 1298.000
45.92000 1246.000
45.96000 1318.000
46.00000 1293.000
46.04000 1380.000
46.08000 1324.000
46.12000 1340.000
46.16000 1285.000
46.20000 1276.000
46.24000 1308.000
46.28000 1293.000
46.32000 1297.000
46.36000 1314.000
46.40000 1278.000
46.44000 1333.000
46.48000 1334.000
46.52000 1412.000
46.56000 1398.000
46.60000 1360.000
46.64000 1415.000
46.68000 1369.000
46.72000 1391.000
46.76000 1390.000
46.80000 1376.000
46.84000 1271.000
46.88000 1327.000
46.92000 1266.000
46.96000 1335.000
47.00000 1287.000
47.04000 1309.000
47.08000 1281.000
47.12000 1280.000
47.16000 1295.000
47.20000 1222.000
47.24000 1271.000
47.28000 1228.000
47.32000 1268.000
47.36000 1250.000
47.40000 1313.000
47.44000 1263.000
47.48000 1295.000
47.52000 1326.000
47.56000 1256.000
47.60000 1345.000
47.64000 1314.000
47.68000 1313.000
47.72000 1272.000
47.76000 1261.000
47.80000 1265.000
47.84000 1249.000
47.88000 1343.000
47.92000 1316.000
47.96000 1261.000
48.00000 1192.000
48.04000 1244.000
48.08000 1265.000
48.12000 1234.000
48.16000 1196.000
48.20000 1238.000
48.24000 1238.000
48.28000 1294.000
48.32000 1158.000
48.36000 1221.000
48.40000 1257.000
48.44000 1261.000
48.48000 1164.000
48.52000 1222.000
48.56000 1272.000
48.60000 1272.000
48.64000 1236.000
48.68000 1274.000
48.72000 1295.000
48.76000 1211.000
48.80000 1280.000
48.84000 1271.000
48.88000 1280.000
48.92000 1246.000
48.96000 1261.000
49.00000 1242.000
49.04000 1289.000
49.08000 1211.000
49.12000 1213.000
49.16000 1240.000
49.20000 1224.000
49.24000 1187.000
49.28000 1174.000
49.32000 1177.000
49.36000 1218.000
49.40000 1184.000
49.44000 1192.000
49.48000 1187.000
49.52000 1199.000
49.56000 1221.000
49.60000 1221.000
49.64000 1232.000
49.68000 1108.000
49.72000 1198.000
49.76000 1187.000
49.80000 1215.000
49.84000 1173.000
49.88000 1186.000
49.92000 1213.000
49.96000 1272.000
50.00000 1186.000
50.04000 1166.000
50.08000 1236.000
50.12000 1257.000
50.16000 1225.000
50.20000 1241.000
50.24000 1294.000
50.28000 1327.000
50.32000 1267.000
50.36000 1215.000
50.40000 1253.000
50.44000 1276.000
50.48000 1251.000
50.52000 1235.000
50.56000 1336.000
50.60000 1294.000
50.64000 1327.000
50.68000 1261.000
50.72000 1296.000
50.76000 1223.000
50.80000 1274.000
50.84000 1331.000
50.88000 1335.000
50.92000 1286.000
50.96000 1216.000
51.00000 1219.000
51.04000 1243.000
51.08000 1197.000
51.12000 1309.000
51.16000 1196.000
51.20000 1205.000
51.24000 1231.000
51.28000 1206.000
51.32000 1229.000
51.36000 1146.000
51.40000 1182.000
51.44000 1191.000
51.48000 1177.000
51.52000 1183.000
51.56000 1155.000
51.60000 1179.000
51.64000 1196.000
51.68000 1278.000
51.72000 1211.000
51.76000 1221.000
51.80000 1219.000
51.84000 1204.000
51.88000 1290.000
51.92000 1249.000
51.96000 1223.000
52.00000 1215.000
52.04000 1292.000
52.08000 1271.000
52.12000 1292.000
52.16000 1336.000
52.20000 1343.000
52.24000 1541.000
52.28000 1596.000
52.32000 1557.000
52.36000 1753.000
52.40000 1817.000
52.44000 1873.000
52.48000 1928.000
52.52000 1909.000
52.56000 1924.000
52.60000 1900.000
52.64000 1760.000
52.68000 1636.000
52.72000 1622.000
52.76000 1506.000
52.80000 1387.000
52.84000 1413.000
52.88000 1377.000
52.92000 1296.000
52.96000 1193.000
53.00000 1284.000
53.04000 1231.000
53.08000 1237.000
53.12000 1257.000
53.16000 1279.000
53.20000 1276.000
53.24000 1261.000
53.28000 1247.000
53.32000 1206.000
53.36000 1183.000
53.40000 1240.000
53.44000 1216.000
53.48000 1196.000
53.52000 1224.000
53.56000 1196.000
53.60000 1134.000
53.64000 1210.000
53.68000 1128.000
53.72000 1153.000
53.76000 1165.000
53.80000 1119.000
53.84000 1162.000
53.88000 1196.000
53.92000 1127.000
53.96000 1178.000
54.00000 1163.000
54.04000 1165.000
54.08000 1105.000
54.12000 1184.000
54.16000 1145.000
54.20000 1196.000
54.24000 1139.000
54.28000 1177.000
54.32000 1169.000
54.36000 1170.000
54.40000 1171.000
54.44000 1142.000
54.48000 1133.000
54.52000 1133.000
54.56000 1180.000
54.60000 1138.000
54.64000 1201.000
54.68000 1147.000
54.72000 1100.000
54.76000 1157.000
54.80000 1159.000
54.84000 1095.000
54.88000 1199.000
54.92000 1099.000
54.96000 1147.000
55.00000 1108.000
55.04000 1167.000
55.08000 1147.000
55.12000 1149.000
55.16000 1161.000
55.20000 1160.000
55.24000 1139.000
55.28000 1162.000
55.32000 1154.000
55.36000 1174.000
55.40000 1094.000
55.44000 1127.000
55.48000 1089.000
55.52000 1096.000
55.56000 1152.000
55.60000 1177.000
55.64000 1179.000
55.68000 1123.000
55.72000 1065.000
55.76000 1155.000
55.80000 1122.000
55.84000 1060.000
55.88000 1136.000
55.92000 1136.000
55.96000 1148.000
56.00000 1139.000
56.04000 1125.000
56.08000 1151.000
56.12000 1215.000
56.16000 1090.000
56.20000 1158.000
56.24000 1156.000
56.28000 1163.000
56.32000 1122.000
56.36000 1158.000
56.40000 1126.000
56.44000 1156.000
56.48000 1178.000
56.52000 1200.000
56.56000 1098.000
56.60000 1160.000
56.64000 1145.000
56.68000 1124.000
56.72000 1138.000
56.76000 1154.000
56.80000 1145.000
56.84000 1096.000
56.88000 1128.000
56.92000 1187.000
56.96000 1115.000
57.00000 1166.000
57.04000 1148.000
57.08000 1166.000
57.12000 1183.000
57.16000 1197.000
57.20000 1177.000
57.24000 1189.000
57.28000 1158.000
57.32000 1147.000
57.36000 1100.000
57.40000 1117.000
57.44000 1054.000
57.48000 1153.000
57.52000 1113.000
57.56000 1081.000
57.60000 1184.000
57.64000 1110.000
57.68000 1144.000
57.72000 1166.000
57.76000 1101.000
57.80000 1055.000
57.84000 1176.000
57.88000 1152.000
57.92000 1155.000
57.96000 1134.000
58.00000 1119.000
58.04000 1153.000
58.08000 1152.000
58.12000 1111.000
58.16000 1176.000
58.20000 1124.000
58.24000 1135.000
58.28000 1107.000
58.32000 1114.000
58.36000 1185.000
58.40000 1125.000
58.44000 1191.000
58.48000 1144.000
58.52000 1124.000
58.56000 1097.000
58.60000 1128.000
58.64000 1113.000
58.68000 1113.000
58.72000 1134.000
58.76000 1105.000
58.80000 1140.000
58.84000 1142.000
58.88000 1112.000
58.92000 1123.000
58.96000 1114.000
59.00000 1129.000
59.04000 1140.000
59.08000 1069.000
59.12000 1112.000
59.16000 1157.000
59.20000 1103.000
59.24000 1132.000
59.28000 1126.000
59.32000 1177.000
59.36000 1100.000
59.40000 1190.000
59.44000 1101.000
59.48000 1110.000
59.52000 1121.000
59.56000 1111.000
59.60000 1157.000
59.64000 1168.000
59.68000 1160.000
59.72000 1160.000
59.76000 1133.000
59.80000 1132.000
59.84000 1105.000
59.88000 1113.000
59.92000 1036.000
59.96000 1092.000
60.00000 1121.000
60.04000 1094.000
60.08000 1099.000
60.12000 1130.000
60.16000 1097.000
60.20000 1160.000
60.24000 1161.000
60.28000 1106.000
60.32000 1106.000
60.36000 1089.000
60.40000 1105.000
60.44000 1154.000
60.48000 1111.000
60.52000 1151.000
60.56000 1154.000
60.60000 1129.000
60.64000 1114.000
60.68000 1183.000
60.72000 1107.000
60.76000 1173.000
60.80000 1183.000
60.84000 1138.000
60.88000 1163.000
60.92000 1088.000
60.96000 1169.000
61.00000 1174.000
61.04000 1039.000
61.08000 1143.000
61.12000 1114.000
61.16000 1142.000
61.20000 1199.000
61.24000 1169.000
61.28000 1140.000
61.32000 1132.000
61.36000 1078.000
61.40000 1111.000
61.44000 1174.000
61.48000 1172.000
61.52000 1213.000
61.56000 1127.000
61.60000 1200.000
61.64000 1138.000
61.68000 1162.000
61.72000 1063.000
61.76000 1076.000
61.80000 1161.000
61.84000 1173.000
61.88000 1132.000
61.92000 1170.000
61.96000 1155.000
62.00000 1105.000
62.04000 1135.000
62.08000 1192.000
62.12000 1143.000
62.16000 1168.000
62.20000 1087.000
62.24000 1208.000
62.28000 1188.000
62.32000 1096.000
62.36000 1131.000
62.40000 1169.000
62.44000 1085.000
62.48000 1104.000
62.52000 1175.000
62.56000 1125.000
62.60000 1160.000
62.64000 1118.000
62.68000 1144.000
62.72000 1096.000
62.76000 1150.000
62.80000 1111.000
62.84000 1039.000
62.88000 1136.000
62.92000 1105.000
62.96000 1152.000
63.00000 1151.000
63.04000 1131.000
63.08000 1101.000
63.12000 1039.000
63.16000 1175.000
63.20000 1127.000
63.24000 1119.000
63.28000 1093.000
63.32000 1089.000
63.36000 1060.000
63.40000 1129.000
63.44000 1051.000
63.48000 1064.000
63.52000 1117.000
63.56000 1106.000
63.60000 1117.000
63.64000 1153.000
63.68000 1048.000
63.72000 1074.000
63.76000 1097.000
63.80000 1161.000
63.84000 1043.000
63.88000 1106.000
63.92000 1096.000
63.96000 1073.000
64.00000 1123.000
64.04000 1114.000
64.08000 1081.000
64.12000 1069.000
64.16000 1045.000
64.20000 1112.000
64.24000 1130.000
64.28000 1141.000
64.32000 1131.000
64.36000 1125.000
64.40000 1029.000
64.44000 1044.000
64.48000 1099.000
64.52000 1113.000
64.56000 1061.000
64.60000 1057.000
64.64000 1121.000
64.68000 1053.000
64.72000 1071.000
64.76000 1109.000
64.80000 1087.000
64.84000 1068.000
64.88000 1075.000
64.92000 1117.000
64.96000 1116.000
65.00000 1050.000
65.04000 1087.000
65.08000 1059.000
65.12000 1131.000
65.16000 1071.000
65.20000 1120.000
65.24000 1018.000
65.28000 1078.000
65.32000 1120.000
65.36000 1130.000
65.40000 1121.000
65.44000 1051.000
65.48000 1088.000
65.52000 1035.000
65.56000 1015.000
65.60000 1106.000
65.64000 1028.000
65.68000 1048.000
65.72000 1074.000
65.76000 1080.000
65.80000 1026.000
65.84000 1101.000
65.88000 1101.000
65.92000 1068.000
65.96000 1074.000
66.00000 994.000
66.04000 1067.000
66.08000 1091.000
66.12000 1031.000
66.16000 1068.000
66.20000 1087.000
66.24000 1038.000
66.28000 1079.000
66.32000 1039.000
66.36000 1074.000
66.40000 1051.000
66.44000 1029.000
66.48000 1041.000
66.52000 1010.000
66.56000 1055.000
66.60000 1052.000
66.64000 1068.000
66.68000 1035.000
66.72000 1056.000
66.76000 1031.000
66.80000 1045.000
66.84000 999.000
66.88000 1038.000
66.92000 1004.000
66.96000 1054.000
67.00000 1008.000
67.04000 1013.000
67.08000 991.000
67.12000 1011.000
67.16000 1007.000
67.20000 1025.000
67.24000 1046.000
67.28000 998.000
67.32000 1025.000
67.36000 989.000
67.40000 1009.000
67.44000 979.000
67.48000 1006.000
67.52000 1000.000
67.56000 943.000
67.60000 1025.000
67.64000 1053.000
67.68000 955.000
67.72000 1055.000
67.76000 1079.000
67.80000 1051.000
67.84000 1054.000
67.88000 1026.000
67.92000 1049.000
67.96000 1053.000
68.00000 1043.000
68.04000 1023.000
68.08000 1018.000
68.12000 1054.000
68.16000 1080.000
68.20000 1012.000
68.24000 1056.000
68.28000 1003.000
68.32000 1060.000
68.36000 971.000
68.40000 1072.000
68.44000 1068.000
68.48000 991.000
68.52000 1029.000
68.56000 1037.000
68.60000 994.000
68.64000 1001.000
68.68000 969.000
68.72000 1049.000
68.76000 1033.000
68.80000 993.000
68.84000 956.000
68.88000 1000.000
68.92000 928.000
68.96000 961.000
69.00000 1011.000
69.04000 897.000
69.08000 963.000
69.12000 988.000
69.16000 1001.000
69.20000 981.000
69.24000 950.000
69.28000 956.000
69.32000 978.000
69.36000 971.000
69.40000 998.000
69.44000 1037.000
69.48000 953.000
69.52000 978.000
69.56000 985.000
69.60000 973.000
69.64000 1006.000
69.68000 962.000
69.72000 942.000
69.76000 971.000
69.80000 1001.000
69.84000 1043.000
69.88000 962.000
69.92000 949.000
