5.00000 4806.000
5.04000 4625.000
5.08000 4651.000
5.12000 4653.000
5.16000 4787.000
5.20000 4512.000
5.24000 4649.000
5.28000 4545.000
5.32000 4560.000
5.36000 4442.000
5.40000 4359.000
5.44000 4390.000
5.48000 4328.000
5.52000 4229.000
5.56000 4188.000
5.60000 4186.000
5.64000 4135.000
5.68000 4148.000
5.72000 3993.000
5.76000 3996.000
5.80000 3994.000
5.84000 3993.000
5.88000 4088.000
5.92000 3992.000
5.96000 3852.000
6.00000 3868.000
6.04000 3758.000
6.08000 3835.000
6.12000 3799.000
6.16000 3764.000
6.20000 3839.000
6.24000 3749.000
6.28000 3679.000
6.32000 3669.000
6.36000 3576.000
6.40000 3620.000
6.44000 3498.000
6.48000 3541.000
6.52000 3461.000
6.56000 3574.000
6.60000 3427.000
6.64000 3448.000
6.68000 3399.000
6.72000 3385.000
6.76000 3383.000
6.80000 3413.000
6.84000 3385.000
6.88000 3231.000
6.92000 3316.000
6.96000 3229.000
7.00000 3251.000
7.04000 3162.000
7.08000 3157.000
7.12000 3122.000
7.16000 3202.000
7.20000 3084.000
7.24000 3285.000
7.28000 3094.000
7.32000 3044.000
7.36000 3071.000
7.40000 2959.000
7.44000 3031.000
7.48000 3012.000
7.52000 3023.000
7.56000 3092.000
7.60000 2988.000
7.64000 2934.000
7.68000 2912.000
7.72000 2905.000
7.76000 2891.000
7.80000 2905.000
7.84000 2790.000
7.88000 2830.000
7.92000 2903.000
7.96000 2866.000
8.00000 2939.000
8.04000 2934.000
8.08000 3107.000
8.12000 3045.000
8.16000 3063.000
8.20000 2990.000
8.24000 3043.000
8.28000 3094.000
8.32000 2993.000
8.36000 3011.000
8.40000 2974.000
8.44000 2836.000
8.48000 2790.000
8.52000 2711.000
8.56000 2625.000
8.60000 2586.000
8.64000 2639.000
8.68000 2574.000
8.72000 2551.000
8.76000 2503.000
8.80000 2612.000
8.84000 2513.000
8.88000 2573.000
8.92000 2516.000
8.96000 2424.000
9.00000 2512.000
9.04000 2522.000
9.08000 2512.000
9.12000 2412.000
9.16000 2408.000
9.20000 2413.000
9.24000 2495.000
9.28000 2448.000
9.32000 2422.000
9.36000 2358.000
9.40000 2352.000
9.44000 2373.000
9.48000 2396.000
9.52000 2340.000
9.56000 2332.000
9.60000 2306.000
9.64000 2395.000
9.68000 2289.000
9.72000 2303.000
9.76000 2272.000
9.80000 2319.000
9.84000 2340.000
9.88000 2251.000
9.92000 2211.000
9.96000 2311.000
10.00000 2329.000
10.04000 2285.000
10.08000 2250.000
10.12000 2229.000
10.16000 2279.000
10.20000 2232.000
10.24000 2216.000
10.28000 2230.000
10.32000 2189.000
10.36000 2178.000
10.40000 2214.000
10.44000 2258.000
10.48000 2107.000
10.52000 2047.000
10.56000 2186.000
10.60000 2156.000
10.64000 2110.000
10.68000 2093.000
10.72000 2164.000
10.76000 2105.000
10.80000 2147.000
10.84000 2140.000
10.88000 2185.000
10.92000 2157.000
10.96000 2133.000
11.00000 2148.000
11.04000 2067.000
11.08000 2111.000
11.12000 2139.000
11.16000 2096.000
11.20000 2129.000
11.24000 2054.000
11.28000 2037.000
11.32000 2090.000
11.36000 2061.000
11.40000 2043.000
11.44000 2069.000
11.48000 2067.000
11.52000 1989.000
11.56000 2045.000
11.60000 2052.000
11.64000 2146.000
11.68000 2091.000
11.72000 2097.000
11.76000 2099.000
11.80000 2038.000
11.84000 2202.000
11.88000 2198.000
11.92000 2235.000
11.96000 2176.000
12.00000 2313.000
12.04000 2144.000
12.08000 2208.000
12.12000 2183.000
12.16000 2201.000
12.20000 2185.000
12.24000 2110.000
12.28000 2111.000
12.32000 2083.000
12.36000 2098.000
12.40000 2172.000
12.44000 2184.000
12.48000 2192.000
12.52000 2304.000
12.56000 2435.000
12.60000 2463.000
12.64000 2484.000
12.68000 2559.000
12.72000 2595.000
12.76000 2693.000
12.80000 2525.000
12.84000 2546.000
12.88000 2389.000
12.92000 2297.000
12.96000 2235.000
13.00000 2109.000
13.04000 1988.000
13.08000 2065.000
13.12000 2063.000
13.16000 1979.000
13.20000 2055.000
13.24000 1942.000
13.28000 1988.000
13.32000 2024.000
13.36000 2035.000
13.40000 2039.000
13.44000 2077.000
13.48000 1991.000
13.52000 2031.000
13.56000 2048.000
13.60000 2026.000
13.64000 1959.000
13.68000 2014.000
13.72000 2080.000
13.76000 2060.000
13.80000 2035.000
13.84000 2071.000
13.88000 1972.000
13.92000 2026.000
13.96000 2058.000
14.00000 2025.000
14.04000 1993.000
14.08000 2061.000
14.12000 2088.000
14.16000 2161.000
14.20000 2064.000
14.24000 2012.000
14.28000 2076.000
14.32000 2124.000
14.36000 2073.000
14.40000 2102.000
14.44000 2110.000
14.48000 2136.000
14.52000 2110.000
14.56000 2102.000
14.60000 2154.000
14.64000 2185.000
14.68000 2137.000
14.72000 2093.000
14.76000 2031.000
14.80000 2166.000
14.84000 2196.000
14.88000 2138.000
14.92000 2095.000
14.96000 2105.000
15.00000 2139.000
15.04000 2129.000
15.08000 2064.000
15.12000 2105.000
15.16000 2120.000
15.20000 2101.000
15.24000 2049.000
15.28000 2142.000
15.32000 2194.000
15.36000 2154.000
15.40000 2135.000
15.44000 2123.000
15.48000 2172.000
15.52000 2149.000
15.56000 2188.000
15.60000 2174.000
15.64000 2067.000
15.68000 2210.000
15.72000 2136.000
15.76000 2230.000
15.80000 2226.000
15.84000 2182.000
15.88000 2201.000
15.92000 2207.000
15.96000 2203.000
16.00000 2121.000
16.04000 2308.000
16.08000 2186.000
16.12000 2180.000
16.16000 2242.000
16.20000 2334.000
16.24000 2263.000
16.28000 2311.000
16.32000 2342.000
16.36000 2319.000
16.40000 2468.000
16.44000 2611.000
16.48000 2662.000
16.52000 2826.000
16.56000 2877.000
16.60000 3015.000
16.64000 2941.000
16.68000 3030.000
16.72000 2793.000
16.76000 2750.000
16.80000 2708.000
16.84000 2597.000
16.88000 2497.000
16.92000 2263.000
16.96000 2252.000
17.00000 2355.000
17.04000 2351.000
17.08000 2372.000
17.12000 2320.000
17.16000 2417.000
17.20000 2407.000
17.24000 2340.000
17.28000 2315.000
17.32000 2420.000
17.36000 2508.000
17.40000 2360.000
17.44000 2453.000
17.48000 2447.000
17.52000 2430.000
17.56000 2468.000
17.60000 2426.000
17.64000 2471.000
17.68000 2405.000
17.72000 2506.000
17.76000 2434.000
17.80000 2392.000
17.84000 2389.000
17.88000 2445.000
17.92000 2559.000
17.96000 2418.000
18.00000 2509.000
18.04000 2472.000
18.08000 2463.000
18.12000 2538.000
18.16000 2454.000
18.20000 2545.000
18.24000 2488.000
18.28000 2603.000
18.32000 2619.000
18.36000 2520.000
18.40000 2566.000
18.44000 2555.000
18.48000 2509.000
18.52000 2498.000
18.56000 2637.000
18.60000 2613.000
18.64000 2638.000
18.68000 2663.000
18.72000 2693.000
18.76000 2595.000
18.80000 2630.000
18.84000 2777.000
18.88000 2666.000
18.92000 2593.000
18.96000 2698.000
19.00000 2785.000
19.04000 2840.000
19.08000 2635.000
19.12000 2729.000
19.16000 2737.000
19.20000 2763.000
19.24000 2713.000
19.28000 2759.000
19.32000 2889.000
19.36000 2807.000
19.40000 2772.000
19.44000 2886.000
19.48000 2798.000
19.52000 2942.000
19.56000 2816.000
19.60000 2894.000
19.64000 2951.000
19.68000 2799.000
19.72000 2909.000
19.76000 2967.000
19.80000 2953.000
19.84000 2862.000
19.88000 2871.000
19.92000 2972.000
19.96000 2893.000
20.00000 3019.000
20.04000 2924.000
20.08000 2945.000
20.12000 2997.000
20.16000 2963.000
20.20000 2942.000
20.24000 3053.000
20.28000 3040.000
20.32000 2976.000
20.36000 3052.000
20.40000 3140.000
20.44000 3028.000
20.48000 3132.000
20.52000 3030.000
20.56000 3055.000
20.60000 3083.000
20.64000 3230.000
20.68000 3264.000
20.72000 3174.000
20.76000 3215.000
20.80000 3223.000
20.84000 3243.000
20.88000 3248.000
20.92000 3236.000
20.96000 3382.000
21.00000 3324.000
21.04000 3303.000
21.08000 3445.000
21.12000 3410.000
21.16000 3309.000
21.20000 3300.000
21.24000 3254.000
21.28000 3321.000
21.32000 3223.000
21.36000 3160.000
21.40000 3241.000
21.44000 3232.000
21.48000 3303.000
21.52000 3253.000
21.56000 3152.000
21.60000 3223.000
21.64000 3232.000
21.68000 3260.000
21.72000 3179.000
21.76000 3300.000
21.80000 3270.000
21.84000 3216.000
21.88000 3292.000
21.92000 3389.000
21.96000 3368.000
22.00000 3401.000
22.04000 3357.000
22.08000 3361.000
22.12000 3408.000
22.16000 3398.000
22.20000 3346.000
22.24000 3267.000
22.28000 3416.000
22.32000 3472.000
22.36000 3412.000
22.40000 3357.000
22.44000 3342.000
22.48000 3433.000
22.52000 3321.000
22.56000 3377.000
22.60000 3389.000
22.64000 3577.000
22.68000 3458.000
22.72000 3410.000
22.76000 3392.000
22.80000 3429.000
22.84000 3542.000
22.88000 3449.000
22.92000 3325.000
22.96000 3384.000
23.00000 3384.000
23.04000 3502.000
23.08000 3351.000
23.12000 3433.000
23.16000 3497.000
23.20000 3425.000
23.24000 3405.000
23.28000 3401.000
23.32000 3405.000
23.36000 3491.000
23.40000 3447.000
23.44000 3482.000
23.48000 3437.000
23.52000 3662.000
23.56000 3621.000
23.60000 3665.000
23.64000 3674.000
23.68000 3658.000
23.72000 3662.000
23.76000 3652.000
23.80000 3662.000
23.84000 3678.000
23.88000 3555.000
23.92000 3701.000
23.96000 3679.000
24.00000 3771.000
24.04000 3789.000
24.08000 3814.000
24.12000 3872.000
24.16000 3877.000
24.20000 4060.000
24.24000 4002.000
24.28000 3863.000
24.32000 3868.000
24.36000 3817.000
24.40000 3732.000
24.44000 3693.000
24.48000 3634.000
24.52000 3448.000
24.56000 3630.000
24.60000 3602.000
24.64000 3530.000
24.68000 3654.000
24.72000 3822.000
24.76000 3839.000
24.80000 4097.000
24.84000 4547.000
24.88000 5094.000
24.92000 5570.000
24.96000 6404.000
25.00000 7201.000
25.04000 7528.000
25.08000 8095.000
25.12000 8320.000
25.16000 7788.000
25.20000 7351.000
25.24000 6636.000
25.28000 5872.000
25.32000 5242.000
25.36000 4498.000
25.40000 3990.000
25.44000 3812.000
25.48000 3777.000
25.52000 3625.000
25.56000 3734.000
25.60000 3789.000
25.64000 3899.000
25.68000 3939.000
25.72000 4117.000
25.76000 4074.000
25.80000 4057.000
25.84000 3912.000
25.88000 3825.000
25.92000 3713.000
25.96000 3667.000
26.00000 3589.000
26.04000 3434.000
26.08000 3358.000
26.12000 3257.000
26.16000 3358.000
26.20000 3336.000
26.24000 3355.000
26.28000 3265.000
26.32000 3242.000
26.36000 3170.000
26.40000 3245.000
26.44000 3358.000
26.48000 3300.000
26.52000 3291.000
26.56000 3279.000
26.60000 3289.000
26.64000 3212.000
26.68000 3353.000
26.72000 3188.000
26.76000 3224.000
26.80000 3249.000
26.84000 3255.000
26.88000 3210.000
26.92000 3399.000
26.96000 3405.000
27.00000 3439.000
27.04000 3345.000
27.08000 3314.000
27.12000 3476.000
27.16000 3585.000
27.20000 3632.000
27.24000 3913.000
27.28000 4114.000
27.32000 4425.000
27.36000 4905.000
27.40000 5129.000
27.44000 5518.000
27.48000 5558.000
27.52000 5666.000
27.56000 5409.000
27.60000 5193.000
27.64000 4771.000
27.68000 4342.000
27.72000 3956.000
27.76000 3768.000
27.80000 3550.000
27.84000 3464.000
27.88000 3425.000
27.92000 3318.000
27.96000 3341.000
28.00000 3391.000
28.04000 3281.000
28.08000 3308.000
28.12000 3127.000
28.16000 3162.000
28.20000 3114.000
28.24000 3124.000
28.28000 2995.000
28.32000 3105.000
28.36000 3006.000
28.40000 2995.000
28.44000 2830.000
28.48000 3029.000
28.52000 2962.000
28.56000 3016.000
28.60000 2968.000
28.64000 2952.000
28.68000 2995.000
28.72000 2878.000
28.76000 2821.000
28.80000 2928.000
28.84000 2997.000
28.88000 2942.000
28.92000 2955.000
28.96000 2950.000
29.00000 2888.000
29.04000 2930.000
29.08000 2959.000
29.12000 2967.000
29.16000 2916.000
29.20000 2973.000
29.24000 2877.000
29.28000 2980.000
29.32000 2951.000
29.36000 2914.000
29.40000 2963.000
29.44000 3057.000
29.48000 3076.000
29.52000 3279.000
29.56000 3393.000
29.60000 3356.000
29.64000 3414.000
29.68000 3463.000
29.72000 3461.000
29.76000 3416.000
29.80000 3313.000
29.84000 3175.000
29.88000 2951.000
29.92000 2980.000
29.96000 2812.000
30.00000 2764.000
30.04000 2822.000
30.08000 2648.000
30.12000 2742.000
30.16000 2771.000
30.20000 2782.000
30.24000 2735.000
30.28000 2716.000
30.32000 2346.000
30.36000 2671.000
30.40000 2737.000
30.44000 2674.000
30.48000 2710.000
30.52000 2556.000
30.56000 2778.000
30.60000 2634.000
30.64000 2710.000
30.68000 2542.000
30.72000 2638.000
30.76000 2684.000
30.80000 2651.000
30.84000 2643.000
30.88000 2733.000
30.92000 2735.000
30.96000 2670.000
31.00000 2526.000
31.04000 2551.000
31.08000 2661.000
31.12000 2684.000
31.16000 2550.000
31.20000 2613.000
31.24000 2582.000
31.28000 2654.000
31.32000 2572.000
31.36000 2577.000
31.40000 2576.000
31.44000 2668.000
31.48000 2521.000
31.52000 2530.000
31.56000 2558.000
31.60000 2636.000
31.64000 2520.000
31.68000 2685.000
31.72000 2581.000
31.76000 2583.000
31.80000 2510.000
31.84000 2631.000
31.88000 2581.000
31.92000 2574.000
31.96000 2609.000
32.00000 2603.000
32.04000 2597.000
32.08000 2679.000
32.12000 2593.000
32.16000 2773.000
32.20000 2777.000
32.24000 2817.000
32.28000 2822.000
32.32000 2852.000
32.36000 2867.000
32.40000 2865.000
32.44000 2693.000
32.48000 2710.000
32.52000 2685.000
32.56000 2523.000
32.60000 2542.000
32.64000 2485.000
32.68000 2473.000
32.72000 2493.000
32.76000 2467.000
32.80000 2465.000
32.84000 2469.000
32.88000 2380.000
32.92000 2326.000
32.96000 2389.000
33.00000 2383.000
33.04000 2296.000
33.08000 2428.000
33.12000 2408.000
33.16000 2420.000
33.20000 2162.000
33.24000 2394.000
33.28000 2149.000
33.32000 2132.000
33.36000 2215.000
33.40000 2189.000
33.44000 2176.000
33.48000 2197.000
33.52000 2102.000
33.56000 2223.000
33.60000 2174.000
33.64000 2242.000
33.68000 2173.000
33.72000 2097.000
33.76000 2109.000
33.80000 2125.000
33.84000 2041.000
33.88000 2055.000
33.92000 1986.000
33.96000 2056.000
34.00000 2096.000
34.04000 2034.000
34.08000 2127.000
34.12000 2080.000
34.16000 2004.000
34.20000 2035.000
34.24000 2006.000
34.28000 2012.000
34.32000 2105.000
34.36000 2047.000
34.40000 1938.000
34.44000 2031.000
34.48000 1960.000
34.52000 1943.000
34.56000 2028.000
34.60000 1949.000
34.64000 1997.000
34.68000 1947.000
34.72000 1937.000
34.76000 2000.000
34.80000 1957.000
34.84000 1936.000
34.88000 1861.000
34.92000 1907.000
34.96000 1890.000
35.00000 1922.000
35.04000 1920.000
35.08000 1878.000
35.12000 1913.000
35.16000 1865.000
35.20000 1818.000
35.24000 1868.000
35.28000 1952.000
35.32000 1905.000
35.36000 1863.000
35.40000 1800.000
35.44000 1792.000
35.48000 1792.000
35.52000 1785.000
35.56000 1800.000
35.60000 1865.000
35.64000 1782.000
35.68000 1785.000
35.72000 1747.000
35.76000 1847.000
35.80000 1752.000
35.84000 1697.000
35.88000 1758.000
35.92000 1717.000
35.96000 1754.000
36.00000 1807.000
36.04000 1756.000
36.08000 1741.000
36.12000 1645.000
36.16000 1709.000
36.20000 1646.000
36.24000 1678.000
36.28000 1721.000
36.32000 1657.000
36.36000 1716.000
36.40000 1679.000
36.44000 1659.000
36.48000 1685.000
36.52000 1672.000
36.56000 1609.000
36.60000 1685.000
36.64000 1628.000
36.68000 1616.000
36.72000 1672.000
36.76000 1760.000
36.80000 1631.000
36.84000 1658.000
36.88000 1651.000
36.92000 1585.000
36.96000 1559.000
37.00000 1661.000
37.04000 1695.000
37.08000 1644.000
37.12000 1540.000
37.16000 1595.000
37.20000 1608.000
37.24000 1487.000
37.28000 1498.000
37.32000 1547.000
37.36000 1530.000
37.40000 1484.000
37.44000 1579.000
37.48000 1562.000
37.52000 1455.000
37.56000 1510.000
37.60000 1564.000
37.64000 1488.000
37.68000 1613.000
37.72000 1600.000
37.76000 1490.000
37.80000 1466.000
37.84000 1490.000
37.88000 1480.000
37.92000 1562.000
37.96000 1491.000
38.00000 1485.000
38.04000 1447.000
38.08000 1496.000
38.12000 1446.000
38.16000 1467.000
38.20000 1496.000
38.24000 1454.000
38.28000 1468.000
38.32000 1465.000
38.36000 1475.000
38.40000 1493.000
38.44000 1506.000
38.48000 1503.000
38.52000 1537.000
38.56000 1546.000
38.60000 1468.000
38.64000 1579.000
38.68000 1550.000
38.72000 1463.000
38.76000 1551.000
38.80000 1524.000
38.84000 1447.000
38.88000 1538.000
38.92000 1449.000
38.96000 1548.000
39.00000 1499.000
39.04000 1566.000
39.08000 1585.000
39.12000 1584.000
39.16000 1656.000
39.20000 1670.000
39.24000 1755.000
39.28000 1745.000
39.32000 1782.000
39.36000 1772.000
39.40000 1634.000
39.44000 1575.000
39.48000 1584.000
39.52000 1572.000
39.56000 1475.000
39.60000 1539.000
39.64000 1412.000
39.68000 1462.000
39.72000 1425.000
39.76000 1402.000
39.80000 1461.000
39.84000 1378.000
39.88000 1420.000
39.92000 1416.000
39.96000 1414.000
40.00000 1359.000
40.04000 1413.000
40.08000 1394.000
40.12000 1454.000
40.16000 1464.000
40.20000 1487.000
40.24000 1443.000
40.28000 1416.000
40.32000 1365.000
40.36000 1393.000
40.40000 1457.000
40.44000 1437.000
40.48000 1417.000
40.52000 1373.000
40.56000 1408.000
40.60000 1459.000
40.64000 1346.000
40.68000 1429.000
40.72000 1381.000
40.76000 1449.000
40.80000 1369.000
40.84000 1459.000
40.88000 1428.000
40.92000 1415.000
40.96000 1421.000
41.00000 1453.000
41.04000 1460.000
41.08000 1400.000
41.12000 1438.000
41.16000 1389.000
41.20000 1436.000
41.24000 1389.000
41.28000 1458.000
41.32000 1467.000
41.36000 1411.000
41.40000 1372.000
41.44000 1354.000
41.48000 1354.000
41.52000 1431.000
41.56000 1357.000
41.60000 1342.000
41.64000 1403.000
41.68000 1359.000
41.72000 1382.000
41.76000 1422.000
41.80000 1433.000
41.84000 1369.000
41.88000 1484.000
41.92000 1496.000
41.96000 1515.000
42.00000 1508.000
42.04000 1520.000
42.08000 1464.000
42.12000 1535.000
42.16000 1572.000
42.20000 1467.000
42.24000 1457.000
42.28000 1484.000
42.32000 1433.000
42.36000 1478.000
42.40000 1518.000
42.44000 1480.000
42.48000 1471.000
42.52000 1589.000
42.56000 1493.000
42.60000 1581.000
42.64000 1507.000
42.68000 1609.000
42.72000 1496.000
42.76000 1630.000
42.80000 1592.000
42.84000 1616.000
42.88000 1624.000
42.92000 1642.000
42.96000 1640.000
43.00000 1605.000
43.04000 1506.000
43.08000 1494.000
43.12000 1388.000
43.16000 1365.000
43.20000 1380.000
43.24000 1416.000
43.28000 1420.000
43.32000 1426.000
43.36000 1356.000
43.40000 1359.000
43.44000 1402.000
43.48000 1399.000
43.52000 1339.000
43.56000 1407.000
43.60000 1306.000
43.64000 1382.000
43.68000 1357.000
43.72000 1349.000
43.76000 1369.000
43.80000 1400.000
43.84000 1316.000
43.88000 1391.000
43.92000 1310.000
43.96000 1374.000
44.00000 1346.000
44.04000 1493.000
44.08000 1334.000
44.12000 1310.000
44.16000 1355.000
44.20000 1352.000
44.24000 1367.000
44.28000 1439.000
44.32000 1430.000
44.36000 1350.000
44.40000 1445.000
44.44000 1449.000
44.48000 1360.000
44.52000 1349.000
44.56000 1393.000
44.60000 1325.000
44.64000 1354.000
44.68000 1353.000
44.72000 1323.000
44.76000 1319.000
44.80000 1362.000
44.84000 1322.000
44.88000 1362.000
44.92000 1347.000
44.96000 1337.000
45.00000 1326.000
45.04000 1341.000
45.08000 1329.000
45.12000 1353.000
45.16000 1364.000
45.20000 1422.000
45.24000 1356.000
45.28000 1377.000
45.32000 1301.000
45.36000 1379.000
45.40000 1313.000
45.44000 1287.000
45.48000 1361.000
45.52000 1338.000
45.56000 1393.000
45.60000 1457.000
45.64000 1482.000
45.68000 1538.000
45.72000 1477.000
45.76000 1607.000
45.80000 1567.000
45.84000 1460.000
45.88000 1506.000
45.92000 1489.000
45.96000 1474.000
46.00000 1468.000
46.04000 1389.000
46.08000 1357.000
46.12000 1321.000
46.16000 1284.000
46.20000 1333.000
46.24000 1293.000
46.28000 1313.000
46.32000 1338.000
46.36000 1329.000
46.40000 1333.000
46.44000 1360.000
46.48000 1314.000
46.52000 1382.000
46.56000 1312.000
46.60000 1260.000
46.64000 1340.000
46.68000 1294.000
46.72000 1250.000
46.76000 1312.000
46.80000 1262.000
46.84000 1278.000
46.88000 1294.000
46.92000 1292.000
46.96000 1253.000
47.00000 1261.000
47.04000 1276.000
47.08000 1290.000
47.12000 1186.000
47.16000 1268.000
47.20000 1252.000
47.24000 1269.000
47.28000 1262.000
47.32000 1280.000
47.36000 1211.000
47.40000 1234.000
47.44000 1212.000
47.48000 1192.000
47.52000 1261.000
47.56000 1231.000
47.60000 1320.000
47.64000 1158.000
47.68000 1240.000
47.72000 1221.000
47.76000 1277.000
47.80000 1281.000
47.84000 1261.000
47.88000 1248.000
47.92000 1260.000
47.96000 1186.000
48.00000 1285.000
48.04000 1288.000
48.08000 1246.000
48.12000 1288.000
48.16000 1266.000
48.20000 1255.000
48.24000 1254.000
48.28000 1203.000
48.32000 1351.000
48.36000 1277.000
48.40000 1240.000
48.44000 1255.000
48.48000 1315.000
48.52000 1313.000
48.56000 1390.000
48.60000 1412.000
48.64000 1481.000
48.68000 1481.000
48.72000 1478.000
48.76000 1563.000
48.80000 1541.000
48.84000 1426.000
48.88000 1412.000
48.92000 1450.000
48.96000 1365.000
49.00000 1266.000
49.04000 1272.000
49.08000 1261.000
49.12000 1248.000
49.16000 1199.000
49.20000 1201.000
49.24000 1203.000
49.28000 1227.000
49.32000 1204.000
49.36000 1178.000
49.40000 1181.000
49.44000 1130.000
49.48000 1222.000
49.52000 1256.000
49.56000 1129.000
49.60000 1201.000
49.64000 1172.000
49.68000 1209.000
49.72000 1298.000
49.76000 1236.000
49.80000 1160.000
49.84000 1185.000
49.88000 1217.000
49.92000 1232.000
49.96000 1210.000
50.00000 1266.000
50.04000 1228.000
50.08000 1269.000
50.12000 1231.000
50.16000 1169.000
50.20000 1178.000
50.24000 1263.000
50.28000 1196.000
50.32000 1297.000
50.36000 1215.000
50.40000 1240.000
50.44000 1141.000
50.48000 1279.000
50.52000 1275.000
50.56000 1203.000
50.60000 1236.000
50.64000 1253.000
50.68000 1198.000
50.72000 1236.000
50.76000 1248.000
50.80000 1228.000
50.84000 1163.000
50.88000 1224.000
50.92000 1186.000
50.96000 1166.000
51.00000 1192.000
51.04000 1233.000
51.08000 1171.000
51.12000 1229.000
51.16000 1135.000
51.20000 1152.000
51.24000 1241.000
51.28000 1220.000
51.32000 1262.000
51.36000 1324.000
51.40000 1251.000
51.44000 1360.000
51.48000 1393.000
51.52000 1506.000
51.56000 1491.000
51.60000 1592.000
51.64000 1663.000
51.68000 1570.000
51.72000 1603.000
51.76000 1532.000
51.80000 1453.000
51.84000 1350.000
51.88000 1334.000
51.92000 1338.000
51.96000 1234.000
52.00000 1257.000
52.04000 1187.000
52.08000 1125.000
52.12000 1192.000
52.16000 1162.000
52.20000 1149.000
52.24000 1149.000
52.28000 1098.000
52.32000 1155.000
52.36000 1214.000
52.40000 1194.000
52.44000 1162.000
52.48000 1131.000
52.52000 1169.000
52.56000 1137.000
52.60000 1102.000
52.64000 1158.000
52.68000 1178.000
52.72000 1125.000
52.76000 1215.000
52.80000 1153.000
52.84000 1122.000
52.88000 1184.000
52.92000 1147.000
52.96000 1142.000
53.00000 1106.000
53.04000 1225.000
53.08000 1191.000
53.12000 1204.000
53.16000 1228.000
53.20000 1130.000
53.24000 1173.000
53.28000 1191.000
53.32000 1173.000
53.36000 1148.000
53.40000 1150.000
53.44000 1201.000
53.48000 1160.000
53.52000 1111.000
53.56000 1089.000
53.60000 1084.000
53.64000 1140.000
53.68000 1166.000
53.72000 1135.000
53.76000 1137.000
53.80000 1116.000
53.84000 1155.000
53.88000 1129.000
53.92000 1168.000
53.96000 1162.000
54.00000 1127.000
54.04000 1092.000
54.08000 1174.000
54.12000 1122.000
54.16000 1134.000
54.20000 1132.000
54.24000 1071.000
54.28000 1137.000
54.32000 1276.000
54.36000 1121.000
54.40000 1173.000
54.44000 1189.000
54.48000 1131.000
54.52000 1200.000
54.56000 1128.000
54.60000 1208.000
54.64000 1164.000
54.68000 1143.000
54.72000 1156.000
54.76000 1179.000
54.80000 1217.000
54.84000 1144.000
54.88000 1156.000
54.92000 1173.000
54.96000 1132.000
55.00000 1154.000
55.04000 1181.000
55.08000 1204.000
55.12000 1115.000
55.16000 1145.000
55.20000 1142.000
55.24000 1120.000
55.28000 1110.000
55.32000 1114.000
55.36000 1139.000
55.40000 1229.000
55.44000 1079.000
55.48000 1148.000
55.52000 1125.000
55.56000 1206.000
55.60000 1158.000
55.64000 1166.000
55.68000 1093.000
55.72000 1146.000
55.76000 1131.000
55.80000 1110.000
55.84000 1170.000
55.88000 1107.000
55.92000 1124.000
55.96000 1144.000
56.00000 1116.000
56.04000 1058.000
56.08000 1146.000
56.12000 1148.000
56.16000 1148.000
56.20000 1191.000
56.24000 1175.000
56.28000 1142.000
56.32000 1097.000
56.36000 1142.000
56.40000 1150.000
56.44000 1132.000
56.48000 1141.000
56.52000 1126.000
56.56000 1200.000
56.60000 1063.000
56.64000 1089.000
56.68000 1185.000
56.72000 1227.000
56.76000 1174.000
56.80000 1221.000
56.84000 1262.000
56.88000 1182.000
56.92000 1220.000
56.96000 1203.000
57.00000 1238.000
57.04000 1221.000
57.08000 1176.000
57.12000 1207.000
57.16000 1130.000
57.20000 1121.000
57.24000 1129.000
57.28000 1179.000
57.32000 1119.000
57.36000 1132.000
57.40000 1148.000
57.44000 1107.000
57.48000 1210.000
57.52000 1074.000
57.56000 1117.000
57.60000 1119.000
57.64000 1187.000
57.68000 1122.000
57.72000 1179.000
57.76000 1164.000
57.80000 1090.000
57.84000 1121.000
57.88000 1135.000
57.92000 1122.000
57.96000 1122.000
58.00000 1118.000
58.04000 1151.000
58.08000 1126.000
58.12000 1165.000
58.16000 1158.000
58.20000 1157.000
58.24000 1233.000
58.28000 1165.000
58.32000 1164.000
58.36000 1127.000
58.40000 1165.000
58.44000 1147.000
58.48000 1144.000
58.52000 1205.000
58.56000 1112.000
58.60000 1148.000
58.64000 1163.000
58.68000 1143.000
58.72000 1159.000
58.76000 1129.000
58.80000 1101.000
58.84000 1125.000
58.88000 1129.000
58.92000 1112.000
58.96000 1153.000
59.00000 1078.000
59.04000 1149.000
59.08000 1144.000
59.12000 1177.000
59.16000 1190.000
59.20000 1161.000
59.24000 1108.000
59.28000 1126.000
59.32000 1167.000
59.36000 1150.000
59.40000 1198.000
59.44000 1177.000
59.48000 1095.000
59.52000 1132.000
59.56000 1230.000
59.60000 1136.000
59.64000 1106.000
59.68000 1107.000
59.72000 1182.000
59.76000 1169.000
59.80000 1102.000
59.84000 1109.000
59.88000 1076.000
59.92000 1154.000
59.96000 1124.000
60.00000 1077.000
60.04000 1109.000
60.08000 1151.000
60.12000 1105.000
60.16000 1152.000
60.20000 1093.000
60.24000 1105.000
60.28000 1119.000
60.32000 1167.000
60.36000 1152.000
60.40000 1102.000
60.44000 1155.000
60.48000 1113.000
60.52000 1069.000
60.56000 1182.000
60.60000 1055.000
60.64000 1107.000
60.68000 1108.000
60.72000 1134.000
60.76000 1134.000
60.80000 1126.000
60.84000 1115.000
60.88000 1161.000
60.92000 1135.000
60.96000 1204.000
61.00000 1173.000
61.04000 1133.000
61.08000 1141.000
61.12000 1089.000
61.16000 1068.000
61.20000 1104.000
61.24000 1062.000
61.28000 1129.000
61.32000 1115.000
61.36000 1088.000
61.40000 1164.000
61.44000 1139.000
61.48000 1119.000
61.52000 1101.000
61.56000 1143.000
61.60000 1164.000
61.64000 1100.000
61.68000 1115.000
61.72000 1138.000
61.76000 1146.000
61.80000 1160.000
61.84000 1124.000
61.88000 1067.000
61.92000 1103.000
61.96000 1179.000
62.00000 1102.000
62.04000 1107.000
62.08000 1125.000
62.12000 1099.000
62.16000 1132.000
62.20000 1106.000
62.24000 1185.000
62.28000 1111.000
62.32000 1192.000
62.36000 1153.000
62.40000 1157.000
62.44000 1059.000
62.48000 1099.000
62.52000 1177.000
62.56000 1156.000
62.60000 1109.000
62.64000 1153.000
62.68000 1126.000
62.72000 1138.000
62.76000 1180.000
62.80000 1100.000
62.84000 1109.000
62.88000 1121.000
62.92000 1112.000
62.96000 1111.000
63.00000 1120.000
63.04000 1133.000
63.08000 1106.000
63.12000 1102.000
63.16000 1051.000
63.20000 1115.000
63.24000 1133.000
63.28000 1100.000
63.32000 1122.000
63.36000 1129.000
63.40000 1099.000
63.44000 1092.000
63.48000 1115.000
63.52000 1058.000
63.56000 1098.000
63.60000 1119.000
63.64000 1146.000
63.68000 1132.000
63.72000 1125.000
63.76000 1155.000
63.80000 1147.000
63.84000 1137.000
63.88000 1094.000
63.92000 1174.000
63.96000 1143.000
64.00000 1106.000
64.04000 1184.000
64.08000 1042.000
64.12000 1149.000
64.16000 1114.000
64.20000 1079.000
64.24000 1136.000
64.28000 1163.000
64.32000 1188.000
64.36000 1185.000
64.40000 1177.000
64.44000 1273.000
64.48000 1212.000
64.52000 1198.000
64.56000 1228.000
64.60000 1093.000
64.64000 1104.000
64.68000 1139.000
64.72000 1079.000
64.76000 1113.000
64.80000 1112.000
64.84000 1123.000
64.88000 1123.000
64.92000 1082.000
64.96000 1074.000
65.00000 1057.000
65.04000 1064.000
65.08000 1095.000
65.12000 1095.000
65.16000 1066.000
65.20000 1103.000
65.24000 1051.000
65.28000 1116.000
65.32000 1058.000
65.36000 1046.000
65.40000 1046.000
65.44000 1066.000
65.48000 1069.000
65.52000 1051.000
65.56000 1065.000
65.60000 1030.000
65.64000 1118.000
65.68000 1085.000
65.72000 1097.000
65.76000 1080.000
65.80000 1058.000
65.84000 1016.000
65.88000 1054.000
65.92000 1121.000
65.96000 1087.000
66.00000 1039.000
66.04000 1063.000
66.08000 1054.000
66.12000 993.000
66.16000 1054.000
66.20000 1105.000
66.24000 1060.000
66.28000 1085.000
66.32000 1026.000
66.36000 1061.000
66.40000 1044.000
66.44000 1067.000
66.48000 989.000
66.52000 1047.000
66.56000 1147.000
66.60000 1087.000
66.64000 1027.000
66.68000 1068.000
66.72000 1080.000
66.76000 1075.000
66.80000 1100.000
66.84000 1119.000
66.88000 1116.000
66.92000 1068.000
66.96000 1038.000
67.00000 1049.000
67.04000 1078.000
67.08000 1074.000
67.12000 1110.000
67.16000 1049.000
67.20000 1082.000
67.24000 1056.000
67.28000 1059.000
67.32000 1038.000
67.36000 1031.000
67.40000 971.000
67.44000 1045.000
67.48000 1042.000
67.52000 998.000
67.56000 1018.000
67.60000 1051.000
67.64000 1071.000
67.68000 1016.000
67.72000 992.000
67.76000 1036.000
67.80000 1014.000
67.84000 1046.000
67.88000 1014.000
67.92000 1002.000
67.96000 996.000
68.00000 1003.000
68.04000 1043.000
68.08000 941.000
68.12000 985.000
68.16000 945.000
68.20000 984.000
68.24000 982.000
68.28000 985.000
68.32000 962.000
68.36000 1005.000
68.40000 1001.000
68.44000 995.000
68.48000 974.000
68.52000 1064.000
68.56000 1006.000
68.60000 948.000
68.64000 984.000
68.68000 986.000
68.72000 998.000
68.76000 941.000
68.80000 1002.000
68.84000 992.000
68.88000 953.000
68.92000 1019.000
68.96000 1012.000
69.00000 1041.000
69.04000 990.000
69.08000 1023.000
69.12000 992.000
69.16000 1057.000
69.20000 1032.000
69.24000 981.000
69.28000 987.000
69.32000 1039.000
69.36000 994.000
69.40000 1044.000
69.44000 978.000
69.48000 1011.000
69.52000 1018.000
69.56000 1015.000
69.60000 1045.000
69.64000 980.000
69.68000 961.000
69.72000 954.000
69.76000 977.000
69.80000 967.000
69.84000 964.000
69.88000 915.000
69.92000 930.000
