5.00000 4669.000
5.04000 4796.000
5.08000 4750.000
5.12000 4829.000
5.16000 4663.000
5.20000 4563.000
5.24000 4536.000
5.28000 4681.000
5.32000 4348.000
5.36000 4491.000
5.40000 4462.000
5.44000 4499.000
5.48000 4415.000
5.52000 4322.000
5.56000 4447.000
5.60000 4264.000
5.64000 4301.000
5.68000 4184.000
5.72000 4228.000
5.76000 4095.000
5.80000 4154.000
5.84000 4162.000
5.88000 4001.000
5.92000 4035.000
5.96000 4069.000
6.00000 3938.000
6.04000 3968.000
6.08000 3718.000
6.12000 3769.000
6.16000 3803.000
6.20000 3745.000
6.24000 3770.000
6.28000 3666.000
6.32000 3745.000
6.36000 3698.000
6.40000 3621.000
6.44000 3541.000
6.48000 3556.000
6.52000 3485.000
6.56000 3549.000
6.60000 3535.000
6.64000 3486.000
6.68000 3488.000
6.72000 3428.000
6.76000 3410.000
6.80000 3399.000
6.84000 3398.000
6.88000 3376.000
6.92000 3150.000
6.96000 3415.000
7.00000 3436.000
7.04000 3298.000
7.08000 3265.000
7.12000 3139.000
7.16000 3158.000
7.20000 3260.000
7.24000 3227.000
7.28000 3187.000
7.32000 3151.000
7.36000 3111.000
7.40000 3097.000
7.44000 3130.000
7.48000 3093.000
7.52000 3062.000
7.56000 3196.000
7.60000 3014.000
7.64000 3042.000
7.68000 3030.000
7.72000 3009.000
7.76000 2885.000
7.80000 2950.000
7.84000 2938.000
7.88000 2921.000
7.92000 2886.000
7.96000 2924.000
8.00000 2879.000
8.04000 2853.000
8.08000 2809.000
8.12000 2744.000
8.16000 2788.000
8.20000 2783.000
8.24000 2798.000
8.28000 2901.000
8.32000 3115.000
8.36000 3303.000
8.40000 3380.000
8.44000 3539.000
8.48000 3800.000
8.52000 3845.000
8.56000 3961.000
8.60000 3763.000
8.64000 3649.000
8.68000 3397.000
8.72000 3123.000
8.76000 2916.000
8.80000 2728.000
8.84000 2592.000
8.88000 2612.000
8.92000 2453.000
8.96000 2560.000
9.00000 2463.000
9.04000 2601.000
9.08000 2454.000
9.12000 2381.000
9.16000 2426.000
9.20000 2393.000
9.24000 2371.000
9.28000 2441.000
9.32000 2307.000
9.36000 2480.000
9.40000 2434.000
9.44000 2416.000
9.48000 2408.000
9.52000 2341.000
9.56000 2352.000
9.60000 2346.000
9.64000 2269.000
9.68000 2375.000
9.72000 2356.000
9.76000 2257.000
9.80000 2218.000
9.84000 2296.000
9.88000 2172.000
9.92000 2240.000
9.96000 2251.000
10.00000 2223.000
10.04000 2281.000
10.08000 2233.000
10.12000 2157.000
10.16000 2229.000
10.20000 2232.000
10.24000 2269.000
10.28000 2263.000
10.32000 2418.000
10.36000 2735.000
10.40000 2847.000
10.44000 3248.000
10.48000 3377.000
10.52000 3670.000
10.56000 3571.000
10.60000 3459.000
10.64000 3370.000
10.68000 3151.000
10.72000 2817.000
10.76000 2631.000
10.80000 2490.000
10.84000 2160.000
10.88000 2048.000
10.92000 2055.000
10.96000 2090.000
11.00000 1987.000
11.04000 1969.000
11.08000 2032.000
11.12000 1954.000
11.16000 2027.000
11.20000 1963.000
11.24000 1940.000
11.28000 1911.000
11.32000 1973.000
11.36000 2027.000
11.40000 1910.000
11.44000 1908.000
11.48000 1876.000
11.52000 1890.000
11.56000 1922.000
11.60000 1888.000
11.64000 1913.000
11.68000 1879.000
11.72000 1920.000
11.76000 1885.000
11.80000 1920.000
11.84000 1944.000
11.88000 1894.000
11.92000 1959.000
11.96000 1851.000
12.00000 1862.000
12.04000 1890.000
12.08000 1887.000
12.12000 1814.000
12.16000 1853.000
12.20000 1857.000
12.24000 1860.000
12.28000 1854.000
12.32000 1968.000
12.36000 1895.000
12.40000 1907.000
12.44000 1921.000
12.48000 1920.000
12.52000 1829.000
12.56000 1912.000
12.60000 1889.000
12.64000 1804.000
12.68000 1846.000
12.72000 1859.000
12.76000 1806.000
12.80000 1836.000
12.84000 1804.000
12.88000 1858.000
12.92000 1936.000
12.96000 2012.000
13.00000 2198.000
13.04000 2466.000
13.08000 2877.000
13.12000 3022.000
13.16000 3250.000
13.20000 3319.000
13.24000 3296.000
13.28000 3155.000
13.32000 2878.000
13.36000 2863.000
13.40000 2477.000
13.44000 2166.000
13.48000 2018.000
13.52000 1919.000
13.56000 1849.000
13.60000 1776.000
13.64000 1847.000
13.68000 1773.000
13.72000 1788.000
13.76000 1731.000
13.80000 1789.000
13.84000 1723.000
13.88000 1699.000
13.92000 1758.000
13.96000 1679.000
14.00000 1808.000
14.04000 1797.000
14.08000 1746.000
14.12000 1743.000
14.16000 1728.000
14.20000 1766.000
14.24000 1775.000
14.28000 1848.000
14.32000 1862.000
14.36000 1788.000
14.40000 1771.000
14.44000 1782.000
14.48000 1853.000
14.52000 1779.000
14.56000 1825.000
14.60000 1833.000
14.64000 1888.000
14.68000 1951.000
14.72000 1958.000
14.76000 1997.000
14.80000 2005.000
14.84000 1967.000
14.88000 2179.000
14.92000 2111.000
14.96000 2192.000
15.00000 2129.000
15.04000 2102.000
15.08000 1860.000
15.12000 2130.000
15.16000 2153.000
15.20000 2088.000
15.24000 2198.000
15.28000 2358.000
15.32000 2495.000
15.36000 2870.000
15.40000 3418.000
15.44000 4310.000
15.48000 5292.000
15.52000 6450.000
15.56000 7467.000
15.60000 8212.000
15.64000 8694.000
15.68000 8477.000
15.72000 7830.000
15.76000 7062.000
15.80000 5766.000
15.84000 4678.000
15.88000 3648.000
15.92000 2869.000
15.96000 2349.000
16.00000 2109.000
16.04000 2047.000
16.08000 1997.000
16.12000 2068.000
16.16000 2127.000
16.20000 2007.000
16.24000 2020.000
16.28000 2086.000
16.32000 2095.000
16.36000 1991.000
16.40000 2088.000
16.44000 2104.000
16.48000 2194.000
16.52000 2185.000
16.56000 2209.000
16.60000 2271.000
16.64000 2252.000
16.68000 2430.000
16.72000 2483.000
16.76000 2694.000
16.80000 2881.000
16.84000 3536.000
16.88000 4671.000
16.92000 6007.000
16.96000 7850.000
17.00000 9685.000
17.04000 11703.000
17.08000 13242.000
17.12000 14220.000
17.16000 14007.000
17.20000 12868.000
17.24000 11426.000
17.28000 9014.000
17.32000 7208.000
17.36000 5369.000
17.40000 3827.000
17.44000 2859.000
17.48000 2518.000
17.52000 2284.000
17.56000 2241.000
17.60000 2145.000
17.64000 2184.000
17.68000 2095.000
17.72000 2148.000
17.76000 2144.000
17.80000 2067.000
17.84000 2110.000
17.88000 2123.000
17.92000 2161.000
17.96000 2165.000
18.00000 2128.000
18.04000 2097.000
18.08000 2159.000
18.12000 2181.000
18.16000 2057.000
18.20000 2216.000
18.24000 2196.000
18.28000 2226.000
18.32000 2209.000
18.36000 2093.000
18.40000 2147.000
18.44000 2100.000
18.48000 2208.000
18.52000 2233.000
18.56000 2202.000
18.60000 2281.000
18.64000 2288.000
18.68000 2277.000
18.72000 2206.000
18.76000 2274.000
18.80000 2178.000
18.84000 2243.000
18.88000 2293.000
18.92000 2293.000
18.96000 2223.000
19.00000 2348.000
19.04000 2220.000
19.08000 2319.000
19.12000 2264.000
19.16000 2328.000
19.20000 2309.000
19.24000 2249.000
19.28000 2268.000
19.32000 2328.000
19.36000 2272.000
19.40000 2412.000
19.44000 2320.000
19.48000 2301.000
19.52000 2297.000
19.56000 2327.000
19.60000 2380.000
19.64000 2446.000
19.68000 2437.000
19.72000 2367.000
19.76000 2407.000
19.80000 2418.000
19.84000 2409.000
19.88000 2465.000
19.92000 2464.000
19.96000 2349.000
20.00000 2473.000
20.04000 2415.000
20.08000 2452.000
20.12000 2522.000
20.16000 2502.000
20.20000 2633.000
20.24000 2576.000
20.28000 2563.000
20.32000 2522.000
20.36000 2558.000
20.40000 2611.000
20.44000 2606.000
20.48000 2707.000
20.52000 2805.000
20.56000 2925.000
20.60000 3247.000
20.64000 3698.000
20.68000 4380.000
20.72000 5337.000
20.76000 6012.000
20.80000 6809.000
20.84000 7262.000
20.88000 7495.000
20.92000 7087.000
20.96000 6610.000
21.00000 6005.000
21.04000 5193.000
21.08000 4586.000
21.12000 4020.000
21.16000 3780.000
21.20000 3880.000
21.24000 3886.000
21.28000 4001.000
21.32000 3830.000
21.36000 3665.000
21.40000 3522.000
21.44000 3532.000
21.48000 3310.000
21.52000 3210.000
21.56000 3127.000
21.60000 3181.000
21.64000 2929.000
21.68000 2950.000
21.72000 2955.000
21.76000 2958.000
21.80000 2912.000
21.84000 2919.000
21.88000 2841.000
21.92000 2795.000
21.96000 2876.000
22.00000 2826.000
22.04000 2900.000
22.08000 2817.000
22.12000 2912.000
22.16000 2848.000
22.20000 2807.000
22.24000 2818.000
22.28000 2905.000
22.32000 2798.000
22.36000 2825.000
22.40000 2783.000
22.44000 2762.000
22.48000 2833.000
22.52000 3011.000
22.56000 2823.000
22.60000 2879.000
22.64000 2907.000
22.68000 2804.000
22.72000 2872.000
22.76000 2859.000
22.80000 2913.000
22.84000 2891.000
22.88000 2853.000
22.92000 2966.000
22.96000 3021.000
23.00000 2915.000
23.04000 3084.000
23.08000 3096.000
23.12000 3089.000
23.16000 3140.000
23.20000 3237.000
23.24000 3228.000
23.28000 3283.000
23.32000 3232.000
23.36000 3208.000
23.40000 3291.000
23.44000 3189.000
23.48000 3221.000
23.52000 3124.000
23.56000 3162.000
23.60000 3090.000
23.64000 3035.000
23.68000 3063.000
23.72000 3035.000
23.76000 3049.000
23.80000 3119.000
23.84000 3161.000
23.88000 3120.000
23.92000 3138.000
23.96000 3258.000
24.00000 3291.000
24.04000 3178.000
24.08000 3202.000
24.12000 3171.000
24.16000 3355.000
24.20000 3298.000
24.24000 3287.000
24.28000 3299.000
24.32000 3189.000
24.36000 3275.000
24.40000 3234.000
24.44000 3344.000
24.48000 3393.000
24.52000 3364.000
24.56000 3428.000
24.60000 3534.000
24.64000 3530.000
24.68000 3570.000
24.72000 3706.000
24.76000 3762.000
24.80000 3816.000
24.84000 3827.000
24.88000 3815.000
24.92000 3974.000
24.96000 4082.000
25.00000 4021.000
25.04000 4003.000
25.08000 4151.000
25.12000 4235.000
25.16000 4331.000
25.20000 4426.000
25.24000 4557.000
25.28000 4607.000
25.32000 5017.000
25.36000 5103.000
25.40000 5553.000
25.44000 6529.000
25.48000 7655.000
25.52000 9958.000
25.56000 13853.000
25.60000 21259.000
25.64000 32302.000
25.68000 47160.000
25.72000 64388.000
25.76000 81865.000
25.80000 96230.000
25.84000 105131.000
25.88000 106111.000
25.92000 100285.000
25.96000 88347.000
26.00000 72278.000
26.04000 55546.000
26.08000 39206.000
26.12000 25536.000
26.16000 16660.000
26.20000 10997.000
26.24000 8623.000
26.28000 7451.000
26.32000 6353.000
26.36000 5901.000
26.40000 5605.000
26.44000 5422.000
26.48000 5308.000
26.52000 5165.000
26.56000 5153.000
26.60000 5313.000
26.64000 5238.000
26.68000 5150.000
26.72000 5065.000
26.76000 4896.000
26.80000 4590.000
26.84000 4314.000
26.88000 3987.000
26.92000 3736.000
26.96000 3463.000
27.00000 3389.000
27.04000 3314.000
27.08000 3183.000
27.12000 3250.000
27.16000 3149.000
27.20000 3092.000
27.24000 3064.000
27.28000 3069.000
27.32000 2992.000
27.36000 2957.000
27.40000 2948.000
27.44000 2896.000
27.48000 2865.000
27.52000 2951.000
27.56000 2856.000
27.60000 2841.000
27.64000 2855.000
27.68000 2798.000
27.72000 2950.000
27.76000 2887.000
27.80000 3108.000
27.84000 2855.000
27.88000 2996.000
27.92000 2967.000
27.96000 3005.000
28.00000 2926.000
28.04000 2977.000
28.08000 2982.000
28.12000 3017.000
28.16000 3017.000
28.20000 2941.000
28.24000 2930.000
28.28000 2872.000
28.32000 2859.000
28.36000 2814.000
28.40000 2883.000
28.44000 2878.000
28.48000 2875.000
28.52000 2704.000
28.56000 2749.000
28.60000 2742.000
28.64000 2807.000
28.68000 2723.000
28.72000 2672.000
28.76000 2670.000
28.80000 2703.000
28.84000 2701.000
28.88000 2599.000
28.92000 2636.000
28.96000 2669.000
29.00000 2550.000
29.04000 2623.000
29.08000 2585.000
29.12000 2585.000
29.16000 2573.000
29.20000 2599.000
29.24000 2634.000
29.28000 2609.000
29.32000 2559.000
29.36000 2610.000
29.40000 2496.000
29.44000 2510.000
29.48000 2579.000
29.52000 2623.000
29.56000 2572.000
29.60000 2580.000
29.64000 2699.000
29.68000 2666.000
29.72000 2846.000
29.76000 2791.000
29.80000 2855.000
29.84000 2755.000
29.88000 2893.000
29.92000 2719.000
29.96000 2681.000
30.00000 2687.000
30.04000 2733.000
30.08000 2752.000
30.12000 2645.000
30.16000 2682.000
30.20000 2823.000
30.24000 2902.000
30.28000 3015.000
30.32000 3068.000
30.36000 3268.000
30.40000 3191.000
30.44000 3182.000
30.48000 3171.000
30.52000 3044.000
30.56000 2973.000
30.60000 2980.000
30.64000 2939.000
30.68000 2872.000
30.72000 3174.000
30.76000 3480.000
30.80000 3584.000
30.84000 3710.000
30.88000 4073.000
30.92000 4353.000
30.96000 4246.000
31.00000 4337.000
31.04000 4365.000
31.08000 4217.000
31.12000 4029.000
31.16000 3818.000
31.20000 3453.000
31.24000 3251.000
31.28000 3008.000
31.32000 2833.000
31.36000 2809.000
31.40000 3072.000
31.44000 3350.000
31.48000 3775.000
31.52000 4281.000
31.56000 5040.000
31.60000 5641.000
31.64000 6173.000
31.68000 6301.000
31.72000 6318.000
31.76000 5996.000
31.80000 5513.000
31.84000 4916.000
31.88000 4339.000
31.92000 3919.000
31.96000 3464.000
32.00000 3389.000
32.04000 3353.000
32.08000 3450.000
32.12000 3559.000
32.16000 3776.000
32.20000 3530.000
32.24000 3583.000
32.28000 3344.000
32.32000 3175.000
32.36000 3019.000
32.40000 2631.000
32.44000 2647.000
32.48000 2393.000
32.52000 2297.000
32.56000 2324.000
32.60000 2316.000
32.64000 2151.000
32.68000 2178.000
32.72000 2281.000
32.76000 2163.000
32.80000 2118.000
32.84000 2242.000
32.88000 2104.000
32.92000 2064.000
32.96000 2151.000
33.00000 2084.000
33.04000 2087.000
33.08000 2072.000
33.12000 2079.000
33.16000 2055.000
33.20000 1954.000
33.24000 2064.000
33.28000 2079.000
33.32000 1998.000
33.36000 1953.000
33.40000 2046.000
33.44000 2112.000
33.48000 2108.000
33.52000 2109.000
33.56000 2085.000
33.60000 2130.000
33.64000 2086.000
33.68000 2109.000
33.72000 2122.000
33.76000 2020.000
33.80000 2070.000
33.84000 2089.000
33.88000 2038.000
33.92000 1981.000
33.96000 2063.000
34.00000 2037.000
34.04000 2015.000
34.08000 1931.000
34.12000 1842.000
34.16000 1864.000
34.20000 1989.000
34.24000 1915.000
34.28000 1882.000
34.32000 1972.000
34.36000 1967.000
34.40000 1938.000
34.44000 1867.000
34.48000 1946.000
34.52000 2044.000
34.56000 2039.000
34.60000 2015.000
34.64000 2075.000
34.68000 2077.000
34.72000 2025.000
34.76000 2112.000
34.80000 2040.000
34.84000 2017.000
34.88000 1903.000
34.92000 1929.000
34.96000 1857.000
35.00000 1730.000
35.04000 1703.000
35.08000 1726.000
35.12000 1720.000
35.16000 1687.000
35.20000 1590.000
35.24000 1722.000
35.28000 1688.000
35.32000 1699.000
35.36000 1628.000
35.40000 1698.000
35.44000 1653.000
35.48000 1656.000
35.52000 1631.000
35.56000 1627.000
35.60000 1650.000
35.64000 1688.000
35.68000 1557.000
35.72000 1694.000
35.76000 1634.000
35.80000 1582.000
35.84000 1599.000
35.88000 1583.000
35.92000 1587.000
35.96000 1590.000
36.00000 1608.000
36.04000 1604.000
36.08000 1574.000
36.12000 1482.000
36.16000 1567.000
36.20000 1541.000
36.24000 1558.000
36.28000 1538.000
36.32000 1499.000
36.36000 1521.000
36.40000 1584.000
36.44000 1489.000
36.48000 1527.000
36.52000 1524.000
36.56000 1561.000
36.60000 1504.000
36.64000 1462.000
36.68000 1482.000
36.72000 1521.000
36.76000 1586.000
36.80000 1554.000
36.84000 1557.000
36.88000 1581.000
36.92000 1557.000
36.96000 1524.000
37.00000 1475.000
37.04000 1568.000
37.08000 1475.000
37.12000 1483.000
37.16000 1512.000
37.20000 1529.000
37.24000 1554.000
37.28000 1499.000
37.32000 1491.000
37.36000 1473.000
37.40000 1520.000
37.44000 1436.000
37.48000 1437.000
37.52000 1370.000
37.56000 1438.000
37.60000 1468.000
37.64000 1494.000
37.68000 1479.000
37.72000 1535.000
37.76000 1451.000
37.80000 1411.000
37.84000 1434.000
37.88000 1371.000
37.92000 1353.000
37.96000 1340.000
38.00000 1448.000
38.04000 1386.000
38.08000 1409.000
38.12000 1371.000
38.16000 1404.000
38.20000 1447.000
38.24000 1414.000
38.28000 1366.000
38.32000 1461.000
38.36000 1407.000
38.40000 1456.000
38.44000 1339.000
38.48000 1326.000
38.52000 1409.000
38.56000 1329.000
38.60000 1390.000
38.64000 1348.000
38.68000 1323.000
38.72000 1362.000
38.76000 1325.000
38.80000 1381.000
38.84000 1387.000
38.88000 1328.000
38.92000 1418.000
38.96000 1279.000
39.00000 1336.000
39.04000 1352.000
39.08000 1395.000
39.12000 1358.000
39.16000 1385.000
39.20000 1384.000
39.24000 1349.000
39.28000 1346.000
39.32000 1371.000
39.36000 1359.000
39.40000 1368.000
39.44000 1329.000
39.48000 1277.000
39.52000 1288.000
39.56000 1330.000
39.60000 1315.000
39.64000 1366.000
39.68000 1401.000
39.72000 1320.000
39.76000 1329.000
39.80000 1360.000
39.84000 1352.000
39.88000 1372.000
39.92000 1370.000
39.96000 1317.000
40.00000 1324.000
40.04000 1405.000
40.08000 1318.000
40.12000 1324.000
40.16000 1320.000
40.20000 1298.000
40.24000 1393.000
40.28000 1302.000
40.32000 1406.000
40.36000 1352.000
40.40000 1386.000
40.44000 1383.000
40.48000 1469.000
40.52000 1486.000
40.56000 1445.000
40.60000 1491.000
40.64000 1454.000
40.68000 1480.000
40.72000 1417.000
40.76000 1436.000
40.80000 1446.000
40.84000 1504.000
40.88000 1350.000
40.92000 1474.000
40.96000 1440.000
41.00000 1427.000
41.04000 1435.000
41.08000 1457.000
41.12000 1495.000
41.16000 1505.000
41.20000 1494.000
41.24000 1470.000
41.28000 1545.000
41.32000 1562.000
41.36000 1574.000
41.40000 1536.000
41.44000 1596.000
41.48000 1525.000
41.52000 1634.000
41.56000 1561.000
41.60000 1525.000
41.64000 1515.000
41.68000 1522.000
41.72000 1437.000
41.76000 1480.000
41.80000 1568.000
41.84000 1551.000
41.88000 1552.000
41.92000 1614.000
41.96000 1722.000
42.00000 1689.000
42.04000 1867.000
42.08000 1965.000
42.12000 2180.000
42.16000 2418.000
42.20000 2618.000
42.24000 3367.000
42.28000 4024.000
42.32000 5505.000
42.36000 7400.000
42.40000 9447.000
42.44000 11194.000
42.48000 13175.000
42.52000 14128.000
42.56000 14269.000
42.60000 13652.000
42.64000 12371.000
42.68000 10558.000
42.72000 8416.000
42.76000 6251.000
42.80000 4537.000
42.84000 3321.000
42.88000 2473.000
42.92000 2042.000
42.96000 1826.000
43.00000 1764.000
43.04000 1772.000
43.08000 1841.000
43.12000 1882.000
43.16000 1940.000
43.20000 1992.000
43.24000 2090.000
43.28000 2321.000
43.32000 2366.000
43.36000 2374.000
43.40000 2481.000
43.44000 2357.000
43.48000 2241.000
43.52000 2296.000
43.56000 2141.000
43.60000 2145.000
43.64000 2154.000
43.68000 2223.000
43.72000 2229.000
43.76000 2394.000
43.80000 2592.000
43.84000 2500.000
43.88000 2702.000
43.92000 2532.000
43.96000 2373.000
44.00000 2300.000
44.04000 2120.000
44.08000 1971.000
44.12000 1774.000
44.16000 1566.000
44.20000 1496.000
44.24000 1457.000
44.28000 1468.000
44.32000 1386.000
44.36000 1451.000
44.40000 1437.000
44.44000 1428.000
44.48000 1343.000
44.52000 1372.000
44.56000 1325.000
44.60000 1281.000
44.64000 1358.000
44.68000 1333.000
44.72000 1333.000
44.76000 1288.000
44.80000 1359.000
44.84000 1394.000
44.88000 1293.000
44.92000 1343.000
44.96000 1344.000
45.00000 1270.000
45.04000 1358.000
45.08000 1381.000
45.12000 1288.000
45.16000 1349.000
45.20000 1299.000
45.24000 1316.000
45.28000 1381.000
45.32000 1338.000
45.36000 1308.000
45.40000 1353.000
45.44000 1382.000
45.48000 1393.000
45.52000 1377.000
45.56000 1451.000
45.60000 1426.000
45.64000 1478.000
45.68000 1371.000
45.72000 1452.000
45.76000 1423.000
45.80000 1365.000
45.84000 1402.000
45.88000 1355.000
45.92000 1368.000
45.96000 1280.000
46.00000 1220.000
46.04000 1306.000
46.08000 1292.000
46.12000 1271.000
46.16000 1241.000
46.20000 1262.000
46.24000 1265.000
46.28000 1281.000
46.32000 1285.000
46.36000 1260.000
46.40000 1272.000
46.44000 1258.000
46.48000 1270.000
46.52000 1283.000
46.56000 1190.000
46.60000 1215.000
46.64000 1273.000
46.68000 1283.000
46.72000 1281.000
46.76000 1264.000
46.80000 1295.000
46.84000 1252.000
46.88000 1294.000
46.92000 1297.000
46.96000 1218.000
47.00000 1292.000
47.04000 1344.000
47.08000 1276.000
47.12000 1253.000
47.16000 1281.000
47.20000 1272.000
47.24000 1246.000
47.28000 1247.000
47.32000 1236.000
47.36000 1205.000
47.40000 1170.000
47.44000 1222.000
47.48000 1203.000
47.52000 1217.000
47.56000 1188.000
47.60000 1189.000
47.64000 1209.000
47.68000 1201.000
47.72000 1226.000
47.76000 1212.000
47.80000 1221.000
47.84000 1182.000
47.88000 1225.000
47.92000 1151.000
47.96000 1216.000
48.00000 1187.000
48.04000 1287.000
48.08000 1212.000
48.12000 1257.000
48.16000 1274.000
48.20000 1385.000
48.24000 1363.000
48.28000 1382.000
48.32000 1436.000
48.36000 1482.000
48.40000 1402.000
48.44000 1436.000
48.48000 1347.000
48.52000 1449.000
48.56000 1331.000
48.60000 1311.000
48.64000 1305.000
48.68000 1130.000
48.72000 1187.000
48.76000 1277.000
48.80000 1306.000
48.84000 1251.000
48.88000 1261.000
48.92000 1219.000
48.96000 1260.000
49.00000 1254.000
49.04000 1256.000
49.08000 1217.000
49.12000 1186.000
49.16000 1227.000
49.20000 1249.000
49.24000 1200.000
49.28000 1197.000
49.32000 1212.000
49.36000 1188.000
49.40000 1116.000
49.44000 1114.000
49.48000 1152.000
49.52000 1211.000
49.56000 1167.000
49.60000 1119.000
49.64000 1125.000
49.68000 1173.000
49.72000 1180.000
49.76000 1148.000
49.80000 1158.000
49.84000 1196.000
49.88000 1252.000
49.92000 1137.000
49.96000 1233.000
50.00000 1145.000
50.04000 1192.000
50.08000 1199.000
50.12000 1258.000
50.16000 1146.000
50.20000 1150.000
50.24000 1204.000
50.28000 1178.000
50.32000 1158.000
50.36000 1152.000
50.40000 1269.000
50.44000 1150.000
50.48000 1213.000
50.52000 1234.000
50.56000 1244.000
50.60000 1137.000
50.64000 1128.000
50.68000 1211.000
50.72000 1142.000
50.76000 1241.000
50.80000 1188.000
50.84000 1139.000
50.88000 1171.000
50.92000 1148.000
50.96000 1209.000
51.00000 1164.000
51.04000 1197.000
51.08000 1095.000
51.12000 1168.000
51.16000 1232.000
51.20000 1164.000
51.24000 1132.000
51.28000 1193.000
51.32000 1199.000
51.36000 1148.000
51.40000 1235.000
51.44000 1149.000
51.48000 1216.000
51.52000 1219.000
51.56000 1162.000
51.60000 1176.000
51.64000 1185.000
51.68000 1216.000
51.72000 1225.000
51.76000 1197.000
51.80000 1240.000
51.84000 1236.000
51.88000 1181.000
51.92000 1157.000
51.96000 1163.000
52.00000 1159.000
52.04000 1182.000
52.08000 1199.000
52.12000 1211.000
52.16000 1150.000
52.20000 1130.000
52.24000 1183.000
52.28000 1165.000
52.32000 1193.000
52.36000 1202.000
52.40000 1206.000
52.44000 1231.000
52.48000 1269.000
52.52000 1189.000
52.56000 1207.000
52.60000 1189.000
52.64000 1281.000
52.68000 1354.000
52.72000 1202.000
52.76000 1255.000
52.80000 1327.000
52.84000 1295.000
52.88000 1394.000
52.92000 1440.000
52.96000 1554.000
53.00000 1794.000
53.04000 2124.000
53.08000 2622.000
53.12000 3127.000
53.16000 3717.000
53.20000 4219.000
53.24000 4437.000
53.28000 4596.000
53.32000 4696.000
53.36000 4409.000
53.40000 4129.000
53.44000 3604.000
53.48000 2995.000
53.52000 2580.000
53.56000 2250.000
53.60000 1893.000
53.64000 1618.000
53.68000 1497.000
53.72000 1387.000
53.76000 1276.000
53.80000 1301.000
53.84000 1283.000
53.88000 1216.000
53.92000 1145.000
53.96000 1170.000
54.00000 1224.000
54.04000 1246.000
54.08000 1161.000
54.12000 1246.000
54.16000 1217.000
54.20000 1194.000
54.24000 1206.000
54.28000 1276.000
54.32000 1319.000
54.36000 1225.000
54.40000 1335.000
54.44000 1311.000
54.48000 1230.000
54.52000 1277.000
54.56000 1278.000
54.60000 1335.000
54.64000 1319.000
54.68000 1219.000
54.72000 1237.000
54.76000 1298.000
54.80000 1233.000
54.84000 1274.000
54.88000 1260.000
54.92000 1323.000
54.96000 1270.000
55.00000 1264.000
55.04000 1329.000
55.08000 1226.000
55.12000 1286.000
55.16000 1335.000
55.20000 1314.000
55.24000 1208.000
55.28000 1213.000
55.32000 1206.000
55.36000 1214.000
55.40000 1173.000
55.44000 1197.000
55.48000 1118.000
55.52000 1183.000
55.56000 1145.000
55.60000 1174.000
55.64000 1181.000
55.68000 1149.000
55.72000 1169.000
55.76000 1180.000
55.80000 1185.000
55.84000 1158.000
55.88000 1126.000
55.92000 1166.000
55.96000 1172.000
56.00000 1140.000
56.04000 1134.000
56.08000 1152.000
56.12000 1109.000
56.16000 1178.000
56.20000 1210.000
56.24000 1138.000
56.28000 1130.000
56.32000 1126.000
56.36000 1135.000
56.40000 1090.000
56.44000 1176.000
56.48000 1134.000
56.52000 1112.000
56.56000 1137.000
56.60000 1139.000
56.64000 1180.000
56.68000 1094.000
56.72000 1132.000
56.76000 1121.000
56.80000 1132.000
56.84000 1134.000
56.88000 1187.000
56.92000 1194.000
56.96000 1208.000
57.00000 1175.000
57.04000 1119.000
57.08000 1081.000
57.12000 1099.000
57.16000 1114.000
57.20000 1133.000
57.24000 1113.000
57.28000 1035.000
57.32000 1160.000
57.36000 1101.000
57.40000 1135.000
57.44000 1078.000
57.48000 1107.000
57.52000 1146.000
57.56000 1140.000
57.60000 1055.000
57.64000 1166.000
57.68000 1160.000
57.72000 1174.000
57.76000 1211.000
57.80000 1118.000
57.84000 1159.000
57.88000 1093.000
57.92000 1141.000
57.96000 1165.000
58.00000 1192.000
58.04000 1202.000
58.08000 1166.000
58.12000 1161.000
58.16000 1213.000
58.20000 1273.000
58.24000 1320.000
58.28000 1457.000
58.32000 1443.000
58.36000 1468.000
58.40000 1543.000
58.44000 1653.000
58.48000 1584.000
58.52000 1663.000
58.56000 1536.000
58.60000 1477.000
58.64000 1458.000
58.68000 1387.000
58.72000 1348.000
58.76000 1261.000
58.80000 1223.000
58.84000 1071.000
58.88000 1092.000
58.92000 1122.000
58.96000 1154.000
59.00000 1068.000
59.04000 1111.000
59.08000 1112.000
59.12000 1077.000
59.16000 1146.000
59.20000 1080.000
59.24000 1108.000
59.28000 1075.000
59.32000 1143.000
59.36000 1084.000
59.40000 1096.000
59.44000 1087.000
59.48000 1116.000
59.52000 1139.000
59.56000 1112.000
59.60000 1134.000
59.64000 1085.000
59.68000 1133.000
59.72000 1142.000
59.76000 1085.000
59.80000 1093.000
59.84000 1075.000
59.88000 1089.000
59.92000 1074.000
59.96000 1105.000
60.00000 1192.000
60.04000 1085.000
60.08000 1114.000
60.12000 1103.000
60.16000 1106.000
60.20000 1044.000
60.24000 1079.000
60.28000 1068.000
60.32000 1152.000
60.36000 1122.000
60.40000 1091.000
60.44000 1063.000
60.48000 1126.000
60.52000 1085.000
60.56000 1097.000
60.60000 1036.000
60.64000 1036.000
60.68000 1105.000
60.72000 1067.000
60.76000 1117.000
60.80000 1097.000
60.84000 1091.000
60.88000 1117.000
60.92000 1122.000
60.96000 1125.000
61.00000 1068.000
61.04000 1059.000
61.08000 1098.000
61.12000 1062.000
61.16000 1094.000
61.20000 1075.000
61.24000 1116.000
61.28000 1003.000
61.32000 1120.000
61.36000 1099.000
61.40000 1072.000
61.44000 1137.000
61.48000 1060.000
61.52000 1151.000
61.56000 1032.000
61.60000 1087.000
61.64000 1125.000
61.68000 1112.000
61.72000 1034.000
61.76000 1043.000
61.80000 1099.000
61.84000 1146.000
61.88000 1097.000
61.92000 1100.000
61.96000 1015.000
62.00000 1070.000
62.04000 1117.000
62.08000 1096.000
62.12000 1101.000
62.16000 1094.000
62.20000 1075.000
62.24000 1087.000
62.28000 1042.000
62.32000 1103.000
62.36000 1101.000
62.40000 1058.000
62.44000 1097.000
62.48000 1072.000
62.52000 1100.000
62.56000 1064.000
62.60000 1100.000
62.64000 1056.000
62.68000 1059.000
62.72000 1122.000
62.76000 1080.000
62.80000 1056.000
62.84000 1093.000
62.88000 1191.000
62.92000 1239.000
62.96000 1276.000
63.00000 1281.000
63.04000 1285.000
63.08000 1260.000
63.12000 1318.000
63.16000 1210.000
63.20000 1313.000
63.24000 1190.000
63.28000 1211.000
63.32000 1211.000
63.36000 1222.000
63.40000 1196.000
63.44000 1127.000
63.48000 1127.000
63.52000 1127.000
63.56000 1127.000
63.60000 1082.000
63.64000 1086.000
63.68000 1090.000
63.72000 1056.000
63.76000 1066.000
63.80000 1032.000
63.84000 1053.000
63.88000 1044.000
63.92000 1062.000
63.96000 1112.000
64.00000 1069.000
64.04000 1084.000
64.08000 1052.000
64.12000 1105.000
64.16000 1066.000
64.20000 1109.000
64.24000 1102.000
64.28000 1075.000
64.32000 1030.000
64.36000 1049.000
64.40000 1021.000
64.44000 1087.000
64.48000 1079.000
64.52000 1116.000
64.56000 1145.000
64.60000 1112.000
64.64000 1151.000
64.68000 1098.000
64.72000 1203.000
64.76000 1188.000
64.80000 1126.000
64.84000 1173.000
64.88000 1147.000
64.92000 1140.000
64.96000 1124.000
65.00000 1113.000
65.04000 1062.000
65.08000 1068.000
65.12000 1107.000
65.16000 1075.000
65.20000 1018.000
65.24000 1020.000
65.28000 1131.000
65.32000 1093.000
65.36000 1039.000
65.40000 1046.000
65.44000 1011.000
65.48000 1016.000
65.52000 1117.000
65.56000 1062.000
65.60000 1037.000
65.64000 1008.000
65.68000 1042.000
65.72000 1123.000
65.76000 1082.000
65.80000 1041.000
65.84000 1109.000
65.88000 1089.000
65.92000 1098.000
65.96000 1063.000
66.00000 1108.000
66.04000 1111.000
66.08000 1060.000
66.12000 1077.000
66.16000 1030.000
66.20000 1054.000
66.24000 1026.000
66.28000 1050.000
66.32000 1085.000
66.36000 1025.000
66.40000 1065.000
66.44000 1030.000
66.48000 1069.000
66.52000 1006.000
66.56000 1021.000
66.60000 972.000
66.64000 991.000
66.68000 1016.000
66.72000 1034.000
66.76000 1069.000
66.80000 1024.000
66.84000 991.000
66.88000 986.000
66.92000 1017.000
66.96000 998.000
67.00000 1006.000
67.04000 1030.000
67.08000 1019.000
67.12000 990.000
67.16000 932.000
67.20000 969.000
67.24000 997.000
67.28000 975.000
67.32000 986.000
67.36000 1005.000
67.40000 1049.000
67.44000 1005.000
67.48000 1005.000
67.52000 977.000
67.56000 961.000
67.60000 1000.000
67.64000 966.000
67.68000 930.000
67.72000 968.000
67.76000 990.000
67.80000 1004.000
67.84000 1068.000
67.88000 1025.000
67.92000 988.000
67.96000 977.000
68.00000 1010.000
68.04000 959.000
68.08000 1011.000
68.12000 1052.000
68.16000 955.000
68.20000 1007.000
68.24000 997.000
68.28000 1001.000
68.32000 938.000
68.36000 996.000
68.40000 977.000
68.44000 976.000
68.48000 1024.000
68.52000 1030.000
68.56000 988.000
68.60000 1052.000
68.64000 1001.000
68.68000 977.000
68.72000 1018.000
68.76000 947.000
68.80000 958.000
68.84000 976.000
68.88000 927.000
68.92000 975.000
68.96000 959.000
69.00000 1012.000
69.04000 891.000
69.08000 905.000
69.12000 971.000
69.16000 940.000
69.20000 885.000
69.24000 971.000
69.28000 936.000
69.32000 980.000
69.36000 973.000
69.40000 942.000
69.44000 964.000
69.48000 844.000
69.52000 901.000
69.56000 977.000
69.60000 913.000
69.64000 931.000
69.68000 927.000
69.72000 940.000
69.76000 924.000
69.80000 903.000
69.84000 892.000
69.88000 1024.000
69.92000 952.000
