nm, %T
1200.000000, 77.770477
1198.000000, 77.721208
1196.000000, 77.678958
1194.000000, 77.592896
1192.000000, 77.515999
1190.000000, 77.461288
1188.000000, 77.346220
1186.000000, 77.280885
1184.000000, 77.213296
1182.000000, 77.146971
1180.000000, 77.094297
1178.000000, 77.033997
1176.000000, 76.965523
1174.000000, 76.896327
1172.000000, 76.829385
1170.000000, 76.769828
1168.000000, 76.704193
1166.000000, 76.653191
1164.000000, 76.617421
1162.000000, 76.525451
1160.000000, 76.484335
1158.000000, 76.459290
1156.000000, 76.400009
1154.000000, 76.361098
1152.000000, 76.294920
1150.000000, 76.276268
1148.000000, 76.224224
1146.000000, 76.167615
1144.000000, 76.137656
1142.000000, 76.100711
1140.000000, 76.062914
1138.000000, 76.002287
1136.000000, 75.972510
1134.000000, 75.947475
1132.000000, 75.890131
1130.000000, 75.854723
1128.000000, 75.862849
1126.000000, 75.828445
1124.000000, 75.793141
1122.000000, 75.796121
1120.000000, 75.766102
1118.000000, 75.744391
1116.000000, 75.723936
1114.000000, 75.706271
1112.000000, 75.691928
1110.000000, 75.677207
1108.000000, 75.683769
1106.000000, 75.648097
1104.000000, 75.648288
1102.000000, 75.658362
1100.000000, 75.642200
1098.000000, 75.662410
1096.000000, 75.655711
1094.000000, 75.649534
1092.000000, 75.659178
1090.000000, 75.669665
1088.000000, 75.667071
1086.000000, 75.663773
1084.000000, 75.669642
1082.000000, 75.667665
1080.000000, 75.713264
1078.000000, 75.746638
1076.000000, 75.772537
1074.000000, 75.781211
1072.000000, 75.819371
1070.000000, 75.844111
1068.000000, 75.876323
1066.000000, 75.913978
1064.000000, 75.953066
1062.000000, 75.999122
1060.000000, 76.023469
1058.000000, 76.076250
1056.000000, 76.106460
1054.000000, 76.148950
1052.000000, 76.218412
1050.000000, 76.261404
1048.000000, 76.313708
1046.000000, 76.366637
1044.000000, 76.440482
1042.000000, 76.499906
1040.000000, 76.561129
1038.000000, 76.645412
1036.000000, 76.700815
1034.000000, 76.769084
1032.000000, 76.848028
1030.000000, 76.960592
1028.000000, 77.027397
1026.000000, 77.105310
1024.000000, 77.210177
1022.000000, 77.288760
1020.000000, 77.360343
1018.000000, 77.477071
1016.000000, 77.564148
1014.000000, 77.656304
1012.000000, 77.758085
1010.000000, 77.862691
1008.000000, 77.967477
1006.000000, 78.076416
1004.000000, 78.200051
1002.000000, 78.309552
1000.000000, 78.423634
998.000000, 78.539303
996.000000, 78.671821
994.000000, 78.803072
992.000000, 78.914848
990.000000, 79.045224
988.000000, 79.179986
986.000000, 79.307913
984.000000, 79.437194
982.000000, 79.586738
980.000000, 79.732754
978.000000, 79.882089
976.000000, 80.024772
974.000000, 80.174098
972.000000, 80.323510
970.000000, 80.463323
968.000000, 80.620329
966.000000, 80.783415
964.000000, 80.942060
962.000000, 81.100426
960.000000, 81.259878
958.000000, 81.422409
956.000000, 81.609463
954.000000, 81.784346
952.000000, 81.934215
950.000000, 82.106525
948.000000, 82.296820
946.000000, 82.459411
944.000000, 82.625382
942.000000, 82.811698
940.000000, 82.982655
938.000000, 83.145373
936.000000, 83.322184
934.000000, 83.506403
932.000000, 83.671838
930.000000, 83.838231
928.000000, 84.019161
926.000000, 84.186129
924.000000, 84.360936
922.000000, 84.545221
920.000000, 84.723064
918.000000, 84.903607
916.000000, 85.080715
914.000000, 85.232115
912.000000, 85.397065
910.000000, 85.567861
908.000000, 85.721328
906.000000, 85.875406
904.000000, 86.050093
902.000000, 86.193620
900.000000, 86.359113
898.000000, 86.539920
896.000000, 86.666735
894.000000, 86.792905
892.000000, 86.929131
890.000000, 87.068613
888.000000, 87.190880
886.000000, 87.313117
884.000000, 87.446608
882.000000, 87.560739
880.000000, 87.690920
878.000000, 87.800865
876.000000, 87.885964
874.000000, 87.971529
872.000000, 88.047439
870.000000, 88.132990
868.000000, 88.171761
866.000000, 88.220722
864.000000, 88.255299
862.000000, 88.307307
860.000000, 88.327125
858.000000, 88.327125
856.000000, 88.327125
854.000000, 88.327125
852.000000, 88.327125
850.000000, 88.327125
848.000000, 88.327125
846.000000, 88.327125
844.000000, 88.327125
842.000000, 88.327125
840.000000, 88.327125
838.000000, 88.327125
836.000000, 88.327125
834.000000, 88.327125
832.000000, 88.327125
830.000000, 88.327125
828.000000, 88.327125
826.000000, 88.327125
824.000000, 88.327125
822.000000, 88.327125
820.000000, 88.327125
818.000000, 88.327125
816.000000, 88.327125
814.000000, 88.327125
812.000000, 88.327125
810.000000, 88.327125
808.000000, 88.327125
806.000000, 88.327125
804.000000, 88.327125
802.000000, 88.327125
800.000000, 88.327125
798.000000, 88.327125
796.000000, 88.327125
794.000000, 88.327125
792.000000, 88.327125
790.000000, 88.327125
788.000000, 88.327125
786.000000, 88.327125
784.000000, 88.327125
782.000000, 88.327125
780.000000, 88.327125
778.000000, 88.327125
776.000000, 88.327125
774.000000, 88.327125
772.000000, 88.327125
770.000000, 88.327125
768.000000, 88.327125
766.000000, 88.327125
764.000000, 88.327125
762.000000, 88.327125
760.000000, 88.327125
758.000000, 88.327125
756.000000, 88.327125
754.000000, 88.327125
752.000000, 88.327125
750.000000, 88.327125
748.000000, 88.327125
746.000000, 88.327125
744.000000, 88.327125
742.000000, 88.327125
740.000000, 88.327125
738.000000, 88.327125
736.000000, 88.327125
734.000000, 88.327125
732.000000, 88.327125
730.000000, 88.327125
728.000000, 88.327125
726.000000, 88.327125
724.000000, 88.327125
722.000000, 88.327125
720.000000, 88.327125
718.000000, 88.327125
716.000000, 88.327125
714.000000, 88.327125
712.000000, 88.327125
710.000000, 88.327125
708.000000, 88.327125
706.000000, 88.327125
704.000000, 88.327125
702.000000, 88.327125
700.000000, 88.327125
698.000000, 88.327125
696.000000, 88.327125
694.000000, 88.327125
692.000000, 88.327125
690.000000, 88.327125
688.000000, 88.327125
686.000000, 88.327125
684.000000, 88.327125
682.000000, 88.327125
680.000000, 88.327125
678.000000, 88.327125
676.000000, 88.327125
674.000000, 88.327125
672.000000, 88.327125
670.000000, 88.327125
668.000000, 88.327125
666.000000, 89.440701
664.000000, 90.059251
662.000000, 90.080265
660.000000, 90.131688
658.000000, 90.092351
656.000000, 90.101397
654.000000, 90.164991
652.000000, 90.204516
650.000000, 90.215539
648.000000, 90.263740
646.000000, 90.285358
644.000000, 90.257629
642.000000, 90.323271
640.000000, 90.429909
638.000000, 90.444284
636.000000, 90.421199
634.000000, 90.384371
632.000000, 90.417969
630.000000, 85.489711
628.000000, 81.710607
626.000000, 82.864347
624.000000, 83.582807
622.000000, 83.537673
620.000000, 83.516440
618.000000, 83.157262
616.000000, 82.593734
614.000000, 81.857009
612.000000, 80.861888
610.000000, 79.398625
608.000000, 77.369677
606.000000, 74.785989
604.000000, 71.405511
602.000000, 67.157137
600.000000, 61.974828
598.000000, 56.034209
596.000000, 49.275485
594.000000, 42.095402
592.000000, 34.955226
590.000000, 28.311294
588.000000, 22.822553
586.000000, 18.262215
584.000000, 15.071982
582.000000, 12.539017
580.000000, 9.106772
578.000000, 9.116728
576.000000, 9.958597
574.000000, 10.060605
572.000000, 10.084573
570.000000, 10.200927
568.000000, 10.389712
566.000000, 10.625953
564.000000, 10.862534
562.000000, 11.139810
560.000000, 10.963506
558.000000, 10.761583
556.000000, 10.673891
554.000000, 10.599239
552.000000, 10.551616
550.000000, 10.447370
548.000000, 10.339438
546.000000, 10.248060
544.000000, 10.120078
542.000000, 9.957873
540.000000, 9.804956
538.000000, 9.653924
536.000000, 9.497551
534.000000, 9.314260
532.000000, 9.138873
530.000000, 8.977902
528.000000, 8.814648
526.000000, 8.657902
524.000000, 8.502808
522.000000, 8.354847
520.000000, 8.251931
518.000000, 8.150423
516.000000, 8.100265
514.000000, 8.014931
512.000000, 7.881525
510.000000, 7.754587
508.000000, 7.608876
506.000000, 7.385923
504.000000, 7.060714
502.000000, 6.684023
500.000000, 6.072531
498.000000, 5.212148
496.000000, 4.203924
494.000000, 3.148910
492.000000, 2.148156
490.000000, 1.302713
488.000000, 0.713629
486.000000, 0.702952
484.000000, 1.794477
482.000000, 2.770140
480.000000, 3.011558
478.000000, 2.965055
476.000000, 2.971268
474.000000, 3.013337
472.000000, 2.985777
470.000000, 3.012605
468.000000, 3.001221
466.000000, 3.022971
464.000000, 2.982009
462.000000, 2.984099
460.000000, 3.123991
458.000000, 3.352039
456.000000, 3.569130
454.000000, 3.852577
452.000000, 4.137751
450.000000, 4.786199
448.000000, 5.707101
446.000000, 5.773828
444.000000, 5.440434
442.000000, 5.209293
440.000000, 5.081816
438.000000, 4.944353
436.000000, 4.850057
434.000000, 4.765911
432.000000, 4.696866
430.000000, 4.578091
428.000000, 4.521225
426.000000, 4.469560
424.000000, 4.360675
422.000000, 4.360756
420.000000, 4.360756
418.000000, 4.360756
416.000000, 4.360756
414.000000, 4.360756
412.000000, 4.360756
410.000000, 4.360756
408.000000, 4.360756
406.000000, 4.360756
404.000000, 4.360756
402.000000, 4.360756
400.000000, 4.360756
398.000000, 4.360756
396.000000, 4.360756
394.000000, 4.360756
392.000000, 4.360756
390.000000, 4.360756
388.000000, 4.360756
386.000000, 4.360756
384.000000, 4.360756
382.000000, 4.360756
380.000000, 4.360756
378.000000, 4.360756
376.000000, 4.360756
374.000000, 4.360756
372.000000, 4.360756
370.000000, 4.360756
368.000000, 4.360756
366.000000, 4.360756
364.000000, 4.360756
362.000000, 4.360756
360.000000, 4.360756
358.000000, 4.360756
356.000000, 4.360756
354.000000, 4.360756
352.000000, 4.360756
350.000000, 4.360756
348.000000, 4.360756
346.000000, 4.360756
344.000000, 4.360756
342.000000, 4.360756
340.000000, 4.360756
338.000000, 4.360756
336.000000, 4.360756
334.000000, 4.360756
332.000000, 4.360756
330.000000, 4.360756
328.000000, 4.360756
326.000000, 4.360756
324.000000, 4.360756
322.000000, 4.360756
320.000000, 4.360756
318.000000, 4.360756
316.000000, 4.360756
314.000000, 4.360756
312.000000, 4.360756
310.000000, 4.360756
308.000000, 4.360756
306.000000, 4.360756
304.000000, 4.360756
302.000000, 4.360756
300.000000, 4.360756
