nm, %R
1100.000000, 25.306855
1098.000000, 25.211728
1096.000000, 25.130278
1094.000000, 25.053804
1092.000000, 24.952015
1090.000000, 24.852001
1088.000000, 24.749135
1086.000000, 24.653629
1084.000000, 24.552987
1082.000000, 24.453420
1080.000000, 24.325676
1078.000000, 24.230890
1076.000000, 24.128223
1074.000000, 24.010242
1072.000000, 23.903666
1070.000000, 23.772801
1068.000000, 23.648136
1066.000000, 23.526226
1064.000000, 23.400116
1062.000000, 23.274946
1060.000000, 23.144113
1058.000000, 23.003970
1056.000000, 22.848566
1054.000000, 22.697494
1052.000000, 22.552405
1050.000000, 22.400318
1048.000000, 22.250635
1046.000000, 22.093386
1044.000000, 21.941692
1042.000000, 21.787249
1040.000000, 21.633429
1038.000000, 21.465311
1036.000000, 21.300603
1034.000000, 21.124876
1032.000000, 20.947001
1030.000000, 20.770305
1028.000000, 20.596938
1026.000000, 20.432010
1024.000000, 20.252939
1022.000000, 20.058002
1020.000000, 19.873895
1018.000000, 19.681548
1016.000000, 19.506306
1014.000000, 19.340052
1012.000000, 19.148708
1010.000000, 18.949124
1008.000000, 18.749230
1006.000000, 18.549522
1004.000000, 18.355221
1002.000000, 18.153450
1000.000000, 17.952760
998.000000, 17.746553
996.000000, 17.551806
994.000000, 17.346959
992.000000, 17.144158
990.000000, 16.939560
988.000000, 16.750908
986.000000, 16.552129
984.000000, 16.344866
982.000000, 16.132960
980.000000, 15.930463
978.000000, 15.723144
976.000000, 15.532875
974.000000, 15.349780
972.000000, 15.148272
970.000000, 14.947725
968.000000, 14.760365
966.000000, 14.579661
964.000000, 14.388265
962.000000, 14.209704
960.000000, 14.028913
958.000000, 13.840275
956.000000, 13.663706
954.000000, 13.494430
952.000000, 13.329442
950.000000, 13.161777
948.000000, 12.993673
946.000000, 12.842167
944.000000, 12.696367
942.000000, 12.547375
940.000000, 12.398041
938.000000, 12.264923
936.000000, 12.140342
934.000000, 12.012864
932.000000, 11.888816
930.000000, 11.799222
928.000000, 11.697300
926.000000, 11.596913
924.000000, 11.502839
922.000000, 11.418435
920.000000, 11.346028
918.000000, 11.276558
916.000000, 11.214102
914.000000, 11.163490
912.000000, 11.114778
910.000000, 11.076805
908.000000, 11.055770
906.000000, 11.043373
904.000000, 11.032423
902.000000, 11.042863
900.000000, 11.037997
898.000000, 11.043152
896.000000, 11.075979
894.000000, 11.129622
892.000000, 11.189378
890.000000, 11.249644
888.000000, 11.316440
886.000000, 11.400625
884.000000, 11.497467
882.000000, 11.616221
880.000000, 11.721944
878.000000, 11.824423
876.000000, 11.967358
874.000000, 12.122610
872.000000, 12.284430
870.000000, 12.448931
868.000000, 12.647479
866.000000, 12.839452
864.000000, 13.002921
862.000000, 13.206891
860.000000, 13.441263
858.000000, 13.441263
856.000000, 13.441263
854.000000, 13.441263
852.000000, 13.441263
850.000000, 13.441263
848.000000, 13.441263
846.000000, 13.441263
844.000000, 13.441263
842.000000, 13.441263
840.000000, 13.441263
838.000000, 13.441263
836.000000, 13.441263
834.000000, 13.441263
832.000000, 13.441263
830.000000, 13.441263
828.000000, 13.441263
826.000000, 13.441263
824.000000, 13.441263
822.000000, 13.441263
820.000000, 13.441263
818.000000, 15.237767
816.000000, 17.512981
814.000000, 18.085316
812.000000, 18.535211
810.000000, 18.943533
808.000000, 19.251460
806.000000, 19.258927
804.000000, 19.272342
802.000000, 19.545930
800.000000, 19.868023
798.000000, 20.180237
796.000000, 20.539322
794.000000, 20.865571
792.000000, 21.241025
790.000000, 21.699292
788.000000, 22.033433
786.000000, 22.322891
784.000000, 22.593343
782.000000, 22.949845
780.000000, 23.290090
778.000000, 23.606252
776.000000, 23.825039
774.000000, 24.051643
772.000000, 24.519287
770.000000, 24.896924
768.000000, 25.149011
766.000000, 25.280503
764.000000, 25.411970
762.000000, 25.776853
760.000000, 25.978707
758.000000, 26.089937
756.000000, 26.292443
754.000000, 26.419795
752.000000, 26.530979
750.000000, 26.620788
748.000000, 26.740909
746.000000, 26.854367
744.000000, 26.870062
742.000000, 26.908325
740.000000, 26.975958
738.000000, 26.970224
736.000000, 26.956754
734.000000, 26.917432
732.000000, 26.875074
730.000000, 26.781697
728.000000, 26.657523
726.000000, 26.588108
724.000000, 26.405916
722.000000, 26.203556
720.000000, 26.030698
718.000000, 25.825781
716.000000, 25.547203
714.000000, 25.246599
712.000000, 25.002338
710.000000, 24.678312
708.000000, 24.353765
706.000000, 24.022169
704.000000, 24.206739
702.000000, 24.499248
700.000000, 23.986600
698.000000, 23.441499
696.000000, 23.028836
694.000000, 22.526205
692.000000, 21.964996
690.000000, 21.367348
688.000000, 20.685834
686.000000, 20.239876
684.000000, 19.997881
682.000000, 19.587100
680.000000, 19.026958
678.000000, 18.487192
676.000000, 18.007345
674.000000, 17.594785
672.000000, 17.185783
670.000000, 16.749838
668.000000, 16.413885
666.000000, 16.115161
664.000000, 15.858510
662.000000, 15.760664
660.000000, 15.716399
658.000000, 15.726610
656.000000, 15.884565
654.000000, 16.067581
652.000000, 16.321391
650.000000, 16.689033
648.000000, 17.105034
646.000000, 17.430674
644.000000, 17.717279
642.000000, 17.966009
640.000000, 18.072035
638.000000, 18.066094
636.000000, 17.968972
634.000000, 17.800422
632.000000, 17.610856
630.000000, 17.363711
628.000000, 17.123295
626.000000, 16.899037
624.000000, 16.715648
622.000000, 16.608283
620.000000, 16.494721
618.000000, 16.385264
616.000000, 16.334303
614.000000, 16.310160
612.000000, 16.318858
610.000000, 16.325631
608.000000, 16.322282
606.000000, 16.364167
604.000000, 16.417271
602.000000, 16.473439
600.000000, 16.528670
598.000000, 16.566461
596.000000, 16.614304
594.000000, 16.712092
592.000000, 16.786827
590.000000, 16.848889
588.000000, 16.911111
586.000000, 16.977279
584.000000, 17.039672
582.000000, 17.083401
580.000000, 17.124372
578.000000, 17.152192
576.000000, 17.153277
574.000000, 17.166950
572.000000, 17.181364
570.000000, 17.173371
568.000000, 17.128980
566.000000, 17.065062
564.000000, 16.976621
562.000000, 16.848006
560.000000, 16.924508
558.000000, 17.212034
556.000000, 17.314543
554.000000, 17.316873
552.000000, 17.283749
550.000000, 17.221235
548.000000, 17.193867
546.000000, 17.155310
544.000000, 17.090822
542.000000, 17.054861
540.000000, 17.000189
538.000000, 16.968430
536.000000, 16.929787
534.000000, 16.872794
532.000000, 16.830474
530.000000, 16.812686
528.000000, 16.786501
526.000000, 16.727432
524.000000, 16.671445
522.000000, 16.630313
520.000000, 16.584880
518.000000, 16.495410
516.000000, 16.391997
514.000000, 16.275196
512.000000, 16.158089
510.000000, 16.075168
508.000000, 16.071201
506.000000, 16.115019
504.000000, 16.235367
502.000000, 16.498320
500.000000, 16.836151
498.000000, 17.261578
496.000000, 17.714403
494.000000, 18.183537
492.000000, 18.670038
490.000000, 19.061254
488.000000, 19.334496
486.000000, 19.248863
484.000000, 18.721187
482.000000, 18.318504
480.000000, 18.185868
478.000000, 18.096847
476.000000, 18.025645
474.000000, 17.899432
472.000000, 17.729302
470.000000, 17.691958
468.000000, 17.606111
466.000000, 17.478956
464.000000, 17.476454
462.000000, 17.513173
460.000000, 17.634405
458.000000, 17.798595
456.000000, 17.933988
454.000000, 18.188649
452.000000, 18.371614
450.000000, 18.685956
448.000000, 19.113988
446.000000, 19.121573
444.000000, 18.937738
442.000000, 18.757807
440.000000, 18.758157
438.000000, 18.782591
436.000000, 18.725997
434.000000, 18.709784
432.000000, 18.687516
430.000000, 18.675818
428.000000, 18.735574
426.000000, 18.746595
424.000000, 18.696128
422.000000, 18.771516
420.000000, 18.889494
418.000000, 18.932541
416.000000, 18.864099
414.000000, 18.917095
412.000000, 19.057756
410.000000, 18.994431
408.000000, 18.887635
406.000000, 18.756322
404.000000, 18.502442
402.000000, 18.501983
400.000000, 18.579005
398.000000, 18.487605
396.000000, 18.593902
394.000000, 18.687262
392.000000, 18.758657
390.000000, 18.855587
388.000000, 19.019565
386.000000, 19.188988
384.000000, 19.364069
382.000000, 19.559875
380.000000, 19.782434
378.000000, 19.782434
376.000000, 19.782434
374.000000, 19.782434
372.000000, 19.782434
370.000000, 19.782434
368.000000, 19.782434
366.000000, 19.782434
364.000000, 19.782434
362.000000, 19.782434
360.000000, 19.782434
358.000000, 19.782434
356.000000, 19.782434
354.000000, 19.782434
352.000000, 19.782434
350.000000, 19.782434
348.000000, 19.782434
346.000000, 19.782434
344.000000, 19.782434
342.000000, 19.782434
340.000000, 19.782434
338.000000, 19.782434
336.000000, 19.782434
334.000000, 19.782434
332.000000, 19.782434
330.000000, 19.782434
328.000000, 19.782434
326.000000, 19.782434
324.000000, 19.782434
322.000000, 19.782434
320.000000, 19.782434
318.000000, 19.782434
316.000000, 19.782434
314.000000, 19.782434
312.000000, 19.782434
310.000000, 19.782434
308.000000, 19.782434
306.000000, 19.782434
304.000000, 19.782434
302.000000, 19.782434
300.000000, 19.782434
