nm, %R
1200.000000, 22.567901
1198.000000, 22.639978
1196.000000, 22.715397
1194.000000, 22.779592
1192.000000, 22.840841
1190.000000, 22.907101
1188.000000, 22.962151
1186.000000, 23.012074
1184.000000, 23.079926
1182.000000, 23.138397
1180.000000, 23.192098
1178.000000, 23.255222
1176.000000, 23.300059
1174.000000, 23.357174
1172.000000, 23.421498
1170.000000, 23.466844
1168.000000, 23.502825
1166.000000, 23.552143
1164.000000, 23.593954
1162.000000, 23.641687
1160.000000, 23.699367
1158.000000, 23.739975
1156.000000, 23.761275
1154.000000, 23.817589
1152.000000, 23.859784
1150.000000, 23.873639
1148.000000, 23.916791
1146.000000, 23.945062
1144.000000, 23.970396
1142.000000, 24.013715
1140.000000, 24.034924
1138.000000, 24.047902
1136.000000, 24.080671
1134.000000, 24.104025
1132.000000, 24.141843
1130.000000, 24.161958
1128.000000, 24.181935
1126.000000, 24.188615
1124.000000, 24.221099
1122.000000, 24.235313
1120.000000, 24.226488
1118.000000, 24.240075
1116.000000, 24.249149
1114.000000, 24.263288
1112.000000, 24.250132
1110.000000, 24.258395
1108.000000, 24.259904
1106.000000, 24.241939
1104.000000, 24.236423
1102.000000, 24.223413
1100.000000, 24.223848
1098.000000, 24.216316
1096.000000, 24.203018
1094.000000, 24.183064
1092.000000, 24.166105
1090.000000, 24.129187
1088.000000, 24.116279
1086.000000, 24.074688
1084.000000, 24.049408
1082.000000, 24.014260
1080.000000, 23.972841
1078.000000, 23.948166
1076.000000, 23.912351
1074.000000, 23.873272
1072.000000, 23.840487
1070.000000, 23.798228
1068.000000, 23.759767
1066.000000, 23.704668
1064.000000, 23.653305
1062.000000, 23.599666
1060.000000, 23.538909
1058.000000, 23.477055
1056.000000, 23.412949
1054.000000, 23.346690
1052.000000, 23.287792
1050.000000, 23.221915
1048.000000, 23.152896
1046.000000, 23.072435
1044.000000, 23.000941
1042.000000, 22.917852
1040.000000, 22.835798
1038.000000, 22.742991
1036.000000, 22.655024
1034.000000, 22.572300
1032.000000, 22.479481
1030.000000, 22.377407
1028.000000, 22.283557
1026.000000, 22.179241
1024.000000, 22.077462
1022.000000, 21.971383
1020.000000, 21.858297
1018.000000, 21.741404
1016.000000, 21.632501
1014.000000, 21.516973
1012.000000, 21.397009
1010.000000, 21.279347
1008.000000, 21.148592
1006.000000, 21.015106
1004.000000, 20.901962
1002.000000, 20.778301
1000.000000, 20.648511
998.000000, 20.511161
996.000000, 20.371599
994.000000, 20.232823
992.000000, 20.087094
990.000000, 19.935891
988.000000, 19.792698
986.000000, 19.651010
984.000000, 19.503111
982.000000, 19.344646
980.000000, 19.183677
978.000000, 19.030851
976.000000, 18.872049
974.000000, 18.706733
972.000000, 18.548319
970.000000, 18.382713
968.000000, 18.217996
966.000000, 18.052487
964.000000, 17.884351
962.000000, 17.709334
960.000000, 17.537387
958.000000, 17.376678
956.000000, 17.205218
954.000000, 17.034047
952.000000, 16.866216
950.000000, 16.691381
948.000000, 16.515965
946.000000, 16.339859
944.000000, 16.173455
942.000000, 15.998592
940.000000, 15.830808
938.000000, 15.660305
936.000000, 15.484600
934.000000, 15.318017
932.000000, 15.141094
930.000000, 14.962728
928.000000, 14.790937
926.000000, 14.620957
924.000000, 14.447211
922.000000, 14.293892
920.000000, 14.145980
918.000000, 13.978591
916.000000, 13.813565
914.000000, 13.659204
912.000000, 13.493655
910.000000, 13.343326
908.000000, 13.206907
906.000000, 13.048306
904.000000, 12.900467
902.000000, 12.775209
900.000000, 12.631018
898.000000, 12.497267
896.000000, 12.365157
894.000000, 12.239157
892.000000, 12.114365
890.000000, 12.005835
888.000000, 11.890763
886.000000, 11.795300
884.000000, 11.698492
882.000000, 11.613637
880.000000, 11.539562
878.000000, 11.463416
876.000000, 11.371072
874.000000, 11.315062
872.000000, 11.262833
870.000000, 11.235285
868.000000, 11.172787
866.000000, 11.125495
864.000000, 11.070674
862.000000, 11.074111
860.000000, 11.069913
858.000000, 11.069913
856.000000, 11.069913
854.000000, 11.069913
852.000000, 11.069913
850.000000, 11.069913
848.000000, 11.069913
846.000000, 11.069913
844.000000, 11.069913
842.000000, 11.069913
840.000000, 13.690051
838.000000, 14.789076
836.000000, 14.594508
834.000000, 14.276804
832.000000, 13.531571
830.000000, 12.981962
828.000000, 12.637103
826.000000, 12.554530
824.000000, 12.343725
822.000000, 12.131499
820.000000, 12.033037
818.000000, 11.793471
816.000000, 11.764627
814.000000, 11.794146
812.000000, 11.709886
810.000000, 11.631802
808.000000, 11.527923
806.000000, 11.679700
804.000000, 11.837284
802.000000, 11.884566
800.000000, 11.882144
798.000000, 11.870302
796.000000, 11.871624
794.000000, 11.897757
792.000000, 11.854773
790.000000, 11.839931
788.000000, 11.815961
786.000000, 11.787508
784.000000, 11.829253
782.000000, 11.816180
780.000000, 11.824553
778.000000, 11.863727
776.000000, 11.866807
774.000000, 11.888834
772.000000, 11.849601
770.000000, 11.845197
768.000000, 11.903628
766.000000, 11.914954
764.000000, 11.956038
762.000000, 11.973256
760.000000, 11.937806
758.000000, 11.924136
756.000000, 11.950923
754.000000, 11.934787
752.000000, 11.936873
750.000000, 11.943324
748.000000, 11.975726
746.000000, 11.988145
744.000000, 11.991735
742.000000, 11.989777
740.000000, 11.986601
738.000000, 11.997253
736.000000, 11.997242
734.000000, 12.022253
732.000000, 12.022980
730.000000, 12.006212
728.000000, 12.000485
726.000000, 12.039566
724.000000, 12.046475
722.000000, 12.063709
720.000000, 12.082072
718.000000, 12.072985
716.000000, 12.063353
714.000000, 12.101409
712.000000, 12.089948
710.000000, 12.079727
708.000000, 12.087706
706.000000, 12.112563
704.000000, 12.113352
702.000000, 12.098294
700.000000, 12.113808
698.000000, 12.117985
696.000000, 12.117069
694.000000, 12.124965
692.000000, 12.106857
690.000000, 12.106883
688.000000, 12.084261
686.000000, 12.119281
684.000000, 12.153314
682.000000, 12.157709
680.000000, 12.146737
678.000000, 12.154470
676.000000, 12.184765
674.000000, 12.181630
672.000000, 12.188991
670.000000, 12.186258
668.000000, 12.174891
666.000000, 12.169417
664.000000, 12.182052
662.000000, 12.209617
660.000000, 12.214136
658.000000, 12.207407
656.000000, 17.337791
654.000000, 19.835739
652.000000, 19.358040
650.000000, 18.851332
648.000000, 18.400034
646.000000, 17.978121
644.000000, 17.484958
642.000000, 16.957572
640.000000, 16.467198
638.000000, 16.013729
636.000000, 15.636784
634.000000, 15.203633
632.000000, 14.865952
630.000000, 14.545282
628.000000, 14.246885
626.000000, 14.017445
624.000000, 13.787056
622.000000, 13.689532
620.000000, 13.681843
618.000000, 13.775136
616.000000, 13.957660
614.000000, 14.258630
612.000000, 14.722757
610.000000, 15.318290
608.000000, 16.030849
606.000000, 16.855817
604.000000, 17.827773
602.000000, 18.817462
600.000000, 19.765867
598.000000, 20.582261
596.000000, 21.082720
594.000000, 21.257489
592.000000, 21.038456
590.000000, 20.607724
588.000000, 20.058847
586.000000, 19.457956
584.000000, 18.868140
582.000000, 18.383048
580.000000, 17.997632
578.000000, 17.659115
576.000000, 17.452417
574.000000, 17.368624
572.000000, 17.315700
570.000000, 17.299076
568.000000, 17.344643
566.000000, 17.464973
564.000000, 17.678160
562.000000, 17.972503
560.000000, 17.540039
558.000000, 16.960341
556.000000, 16.802979
554.000000, 16.784764
552.000000, 16.860601
550.000000, 16.942910
548.000000, 17.003159
546.000000, 17.045047
544.000000, 17.118681
542.000000, 17.188380
540.000000, 17.239432
538.000000, 17.276612
536.000000, 17.326699
534.000000, 17.370476
532.000000, 17.431674
530.000000, 17.485823
528.000000, 17.567359
526.000000, 17.654136
524.000000, 17.775733
522.000000, 17.939876
520.000000, 18.135955
518.000000, 18.365659
516.000000, 18.625805
514.000000, 18.948683
512.000000, 19.261703
510.000000, 19.547150
508.000000, 19.740931
506.000000, 19.742055
504.000000, 19.633212
502.000000, 19.268355
500.000000, 18.654773
498.000000, 17.876740
496.000000, 16.999688
494.000000, 16.098791
492.000000, 15.258738
490.000000, 14.443952
488.000000, 13.822831
486.000000, 14.105651
484.000000, 15.459071
482.000000, 16.621769
480.000000, 17.224036
478.000000, 17.682358
476.000000, 18.111309
474.000000, 18.589046
472.000000, 19.110116
470.000000, 19.595268
468.000000, 20.016348
466.000000, 20.335640
464.000000, 20.531221
462.000000, 20.539243
460.000000, 20.498916
458.000000, 20.345303
456.000000, 20.095651
454.000000, 19.923449
452.000000, 19.684981
450.000000, 19.005056
448.000000, 18.055547
446.000000, 18.006653
444.000000, 18.444420
442.000000, 18.819524
440.000000, 18.991200
438.000000, 19.072025
436.000000, 19.218347
434.000000, 19.363378
432.000000, 19.361621
430.000000, 19.355847
428.000000, 19.353624
426.000000, 19.347284
424.000000, 19.365897
422.000000, 19.368242
420.000000, 19.355010
418.000000, 19.348741
416.000000, 19.356666
414.000000, 19.343527
412.000000, 19.339514
410.000000, 19.328704
408.000000, 19.309359
406.000000, 19.293922
404.000000, 19.299165
402.000000, 19.316440
400.000000, 19.299241
398.000000, 19.275725
396.000000, 19.286092
394.000000, 19.275325
392.000000, 19.305067
390.000000, 19.397559
388.000000, 19.318820
386.000000, 19.226537
384.000000, 19.204722
382.000000, 19.176434
380.000000, 19.227552
378.000000, 19.109911
376.000000, 19.466034
374.000000, 20.558308
372.000000, 20.983425
370.000000, 20.579164
368.000000, 20.071784
366.000000, 19.755832
364.000000, 19.567246
362.000000, 19.266903
360.000000, 18.984223
358.000000, 18.831363
356.000000, 18.740878
354.000000, 18.584566
352.000000, 18.373876
350.000000, 18.466947
348.000000, 18.381868
346.000000, 18.208694
344.000000, 18.313842
342.000000, 18.082428
340.000000, 18.005276
338.000000, 18.449061
336.000000, 18.035718
334.000000, 18.035718
332.000000, 18.035718
330.000000, 18.035718
328.000000, 18.035718
326.000000, 18.035718
324.000000, 18.035718
322.000000, 18.035718
320.000000, 18.035718
318.000000, 18.035718
316.000000, 19.188624
314.000000, 18.368375
312.000000, 18.368375
310.000000, 18.368375
308.000000, 18.368375
306.000000, 18.368375
304.000000, 18.368375
302.000000, 18.368375
300.000000, 18.368375
